Timestamp, Rotation x, Rotation y, Rotation z, Marker
40,-0.25,-0.0625,-0.0625,0
60,0.8125,-0.3125,0,0
80,0.75,-0.375,0.25,0
100,0.3125,-0.25,-0.125,0
120,-0.0625,-0.125,0.0625,0
140,0.3125,-0.375,0.375,0
160,0.625,-1.0625,0.5,0
170,1.0625,-0.6875,0.625,0
170,2.6875,-0.75,1.0625,0
220,4.5,-1,1.75,0
240,5.625,-1.375,2.25,0
260,8.75,-0.6875,2.5,0
280,10.875,-0.625,2.9375,0
300,13.25,0.5625,3.5625,0
320,16.5625,2,5.25,0
340,22.5,2.8125,7.3125,0
360,30.375,2.3125,8.1875,0
380,34.75,2.75,8.5625,0
400,40.9375,2.875,9.25,0
420,51.375,4.1875,10.0625,0
440,62.4375,3.9375,11,0
460,71.3125,3.4375,12.875,0
480,85.3125,4.9375,15.8125,0
500,109.875,10.9375,23.8125,0
520,148.438,11.0625,31.1875,0
540,186.188,1.25,23.25,0
560,177.688,-4,10.0625,0
580,137.812,-2.9375,2.8125,0
600,100.5,-2,2.25,0
620,51.9375,6,-0.25,0
640,-15.875,10.5625,-7.4375,0
660,-26.9375,9.125,-13.4375,0
680,36.3125,9.0625,7.25,0
700,42.25,10,-5.625,0
720,69.25,-8.5,22.5625,0
730,86.3125,-11.4375,34,0
750,55,-16.8125,11.875,0
770,14.875,-15.75,3.875,0
790,12.9375,-3.875,-16.1875,0
810,12,0.1875,-5.6875,0
830,18.5625,5.125,3.25,0
850,8.625,3.375,0.8125,0
870,-6.8125,0.25,-6.1875,0
890,-21,-3.125,-7.5625,0
910,-27.375,-2,-8,0
930,-26.625,-0.3125,-7.3125,0
950,-18.25,0.375,-4.9375,0
970,0.875,-0.3125,-2.125,0
990,22.1875,-1.875,-1.8125,0
1010,29.4375,3,0.625,0
1030,23.75,-4.25,2.5625,0
1040,-1.0625,5.5625,18.75,0
1060,-37.125,2.5,-11.875,0
1080,-15.625,1.6875,-1.8125,0
1100,2.375,5.625,0.125,0
1120,11.1875,-2.5,10,0
1140,0.8125,-2.4375,5.3125,0
1160,-18.875,-3.9375,0.9375,0
1180,-31.6875,-6.625,-0.5625,0
1200,-29,-2.8125,-3.125,0
1220,-16.3125,1.875,-2.75,0
1240,-9.375,2.6875,-2.8125,0
1260,-28.8125,-2.25,-2.75,0
1280,-65.6875,1.8125,-2,0
1300,-74.5,8.125,-1.6875,0
1320,-43.0625,7.25,-3.9375,0
1340,-27,1.375,-6.4375,0
1360,-44.3125,-1.8125,-7.5,0
1380,-75.5625,13,-6.25,0
1400,-77.5625,18.125,-12.0625,0
1420,-62.75,30.75,-17,0
1440,-79.5,44.875,-31.6875,0
1460,-134,57.25,-45.625,0
1480,-178.25,59.3125,-50.75,0
1500,-193.562,58.5625,-47.5,0
1520,-172.438,44.875,-44.1875,0
1540,-118.375,23.75,-39.6875,0
1560,-56.6875,17.5,-37,0
1580,-4.5625,17.375,-32.5625,0
1600,27.9375,25.4375,-28.625,0
1620,51.0625,42.9375,-28.5,0
1640,66.1875,61.375,-30.5,0
1660,79.375,85.1875,-32.875,0
1680,94.5,116.188,-42.375,0
1700,104.438,147.25,-61.875,0
1720,98.0625,169.312,-74.3125,0
1740,87.4375,184.938,-83.25,0
1760,85.625,194,-90.8125,0
1780,97.875,204.312,-94,0
1800,114.75,211.375,-91.8125,0
1820,121.188,213.625,-89.6875,0
1840,115.875,212.75,-84.375,0
1860,117.75,208.188,-79.375,0
1880,119.812,196.062,-69.3125,0
1900,108.312,183.688,-49.625,0
1920,85.1875,172.5,-29.0625,0
1940,56.5625,157.812,-3.75,0
1960,42.3125,134.75,12.3125,0
1980,36.875,105.75,22.1875,0
2000,16.5625,70.625,22.6875,0
2020,1.5,40.5,19.0625,0
2040,-21.6875,22.1875,9.0625,0
2060,-28.625,12.0625,2.875,0
2080,-7,8.5,13.375,0
2100,5.75,20.5,26.25,0
2120,0.9375,35.5,18.9375,0
2140,7.1875,44.875,16.125,0
2160,21,48.4375,11.1875,0
2180,31.75,50.625,-3.3125,0
2200,0.0625,67.75,-10.75,0
2220,-12.875,62.8125,-18.625,0
2240,5.6875,25.75,-15.6875,0
2260,23.25,-20.5,-1.875,0
2280,30.125,-23.5625,2.75,0
2300,21.1875,-1.0625,-0.375,0
2320,12.75,14.625,-7.625,0
2340,13.375,19.375,-13.6875,0
2360,13,25.375,-11.5,0
2380,9.6875,27.1875,-12.5,0
2400,7.8125,19.75,-20.1875,0
2420,2.3125,18.75,-22.4375,0
2440,-2.5625,15.875,-24.6875,0
2460,-3.875,15.25,-24.6875,0
2480,-3.625,13.625,-25.9375,0
2500,-8.375,12.125,-21.625,0
2520,-13.125,5.375,-20.375,0
2540,-16.3125,-1.75,-23.5625,0
2560,-22.5,-7.25,-33.9375,0
2580,-27.75,-9.5,-36.6875,0
2600,-37.5625,-12.5,-22.9375,0
2620,-36.6875,-28.6875,-1,0
2640,-34.6875,-39.125,22.9375,0
2660,-40.9375,-48.875,35.75,0
2680,-61.4375,-63.5625,40.5625,0
2700,-71.4375,-82.9375,47.3125,0
2720,-75.8125,-106.312,51.9375,0
2740,-86,-128.688,55.5625,0
2760,-85.8125,-147.938,60.3125,0
2780,-83.125,-163.25,68.25,0
2800,-79.4375,-173.312,68.9375,0
2820,-87.5,-182.562,62.75,0
2840,-88.1875,-189.375,60.1875,0
2860,-82,-190.375,58.75,0
2880,-87.4375,-188.75,76.875,0
2900,-68.4375,-185.688,73.875,0
2920,-49.375,-184.125,72.6875,0
2940,-76.9375,-197.438,50.625,0
2960,-132,-196.312,45.25,0
2980,-122,-184.875,49.9375,0
3000,-121.688,-179.312,60.0625,0
3020,-125,-170.125,58.8125,0
3040,-131.688,-154.25,45.5,0
3060,-121.812,-84.5625,66.6875,0
3080,-62.25,7.6875,-38.3125,0
3100,-33.8125,85.375,-106.5,0
3110,8.9375,34.5625,-32.125,0
3120,2.375,-1.3125,17.625,0
3140,5.1875,5.8125,16.875,0
3160,14.0625,-1.625,12.875,0
3180,-1.625,-19.5625,2.75,0
3200,-10,-28.375,-21.875,0
3220,-31.1875,-18.375,-30.125,0
3240,-52.75,-4.125,-24.3125,0
3260,-42.8125,-3.5,-13.6875,0
3280,-23.9375,-7.6875,-3.6875,0
3300,-8.4375,-6.4375,2.4375,0
3320,7.875,-2.6875,5.3125,0
3340,13.9375,-1.875,7.625,0
3360,15.875,-4.3125,9.6875,0
3380,0.0625,-10.625,9.25,0
3400,-20.3125,-17.0625,2.75,0
3420,-28.1875,-17.5625,-8.375,0
3440,-26.375,-14.8125,-13.8125,0
3460,-23.625,-12.875,-13.5625,0
3480,-15.875,-10.5625,-9,0
3500,0.125,-5.125,-0.3125,0
3520,16.0625,1.3125,5.0625,0
3540,22.5,4.375,4.8125,0
3560,16.5,3.1875,3.3125,0
3580,1.75,-2.0625,3.8125,0
3600,-6.375,-5.5625,4.4375,0
3620,-9.25,-4.125,3.3125,0
3640,-10.1875,-2.4375,0.4375,0
3660,-10.125,-2.25,-2.6875,0
3680,-7.5625,-3.25,-2.1875,0
3700,-4.625,-3.9375,-0.625,0
3720,-2.3125,-4.9375,-0.5,0
3730,0,-4.625,0.625,0
3750,-1.3125,-3.125,1.25,0
3770,-2.9375,-1.6875,1.4375,0
3790,-3,-0.25,2.4375,0
3810,2.75,0.3125,3.6875,0
3830,8.5,-0.3125,5,0
3850,10.375,-1.25,6.3125,0
3870,9.8125,-1.5625,6.1875,0
3890,8.1875,-1.1875,5.125,0
3910,4.875,-0.625,3.9375,0
3930,3.5,-0.75,3.3125,0
3950,2.75,-0.5625,3.375,0
3970,1.625,-0.6875,2.8125,0
3990,3.375,-0.9375,2.5625,0
4010,4.5,0.125,2.625,0
4030,2.8125,0.875,1.8125,0
4050,1.6875,-0.0625,1.9375,0
4070,2.0625,-0.5,2.375,0
4090,4.75,-0.375,3,0
4110,6.625,-1.5625,3.5,0
4130,5.9375,-2.375,3.5625,0
4150,3.9375,-3,2.75,0
4170,2.875,-2.8125,2.5625,0
4190,1.8125,-2.625,2.75,0
4210,2.1875,-2.3125,2.3125,0
4230,2.75,-3.3125,1.625,0
4250,2.125,-2.8125,1.875,0
4270,2.3125,-2.5625,1.625,0
4290,0.8125,-1.5,1.5,0
4310,0.5625,-1.3125,0.75,0
4330,0.375,-0.875,1,0
4350,-1.875,0.5,0,0
4370,-2.25,0.6875,-0.5625,0
4390,-2.5625,0.5625,-1,0
4410,-3.0625,0.4375,-0.9375,0
4430,-3,0.5,-0.75,0
4450,-3.5,0.375,-1.3125,0
4470,-4.0625,0.5,-2,0
4490,-4.125,0.875,-2.875,0
4510,-3.8125,0.625,-2.9375,0
4530,-3.75,0.375,-2.9375,0
4550,-3.875,0.9375,-2.125,0
4570,-3.625,1.25,-2.875,0
4590,-3.8125,1.8125,-3.875,0
4610,-2.3125,1.9375,-3.9375,0
4630,-0.6875,1.5,-3.5625,0
4650,-0.0625,0.5625,-3,0
4670,-1.75,0.4375,-2.5,0
4690,-4.0625,0.5625,-2.875,0
4710,-4.375,0.5,-2.875,0
4730,-2.8125,0.5625,-2.75,0
4750,-1.1875,0.875,-2.875,0
4770,0.0625,1,-2.9375,0
4790,-0.125,1,-3,0
4810,-0.875,0.8125,-3,0
4830,-1.6875,1.125,-2.4375,0
4850,-1.875,1.875,-2.375,0
4870,-2.0625,1.8125,-1.6875,0
4890,-1.6875,1.75,-0.9375,0
4910,-1.875,1.625,-0.3125,0
4930,-2.6875,1.0625,0.625,0
4950,-2.625,1.0625,1.3125,0
4970,-2.625,0.8125,2,0
4990,-1.0625,0.8125,3.5625,0
5010,0.5625,0.5625,4,0
5030,3.5,0.1875,4.75,0
5050,4.5625,-0.25,5.3125,0
5070,5.5,0,4.8125,0
5090,3.6875,0.0625,4,0
5110,1.375,0.1875,3.25,0
5130,-1.5,0.25,3.0625,0
5150,-2.875,0.125,2.375,0
5170,-4.375,0.5625,1.375,0
5190,-3.875,0.8125,-0.125,0
5210,-4.75,0.9375,-0.4375,0
5230,-4.25,0.0625,-0.25,0
5250,-3.4375,-1,-0.0625,0
5270,-5.4375,-0.625,-0.125,0
5290,-5.3125,-0.5625,-1.3125,0
5310,-4.6875,-0.625,-1.125,0
5330,-2.0625,-1.3125,-1.0625,0
5350,0.5,-1.6875,-1.4375,0
5370,0.375,-2.3125,-1.4375,0
5390,0.6875,-2.1875,-1.5625,0
5410,2.0625,-2.6875,-0.625,0
5430,3.0625,-3.1875,-0.6875,0
5450,4.5,-2.9375,-0.75,0
5470,4.25,-4.4375,-0.6875,0
5490,2.6875,-6.1875,0.4375,0
5510,3.1875,-7.875,0.1875,0
5530,0.5,-7.1875,0.8125,0
5550,0.875,-7.125,0.25,0
5570,0.9375,-6.75,1.625,0
5590,5.0625,-6.1875,3.25,0
5610,8.25,-5.1875,3.75,0
5630,8.8125,-4.9375,2.375,0
5650,10.125,-4.625,1.6875,0
5670,8.625,-3.3125,0.625,0
5690,5.1875,-2.1875,-0.0625,0
5710,3.4375,-0.0625,0.0625,0
5720,1.9375,3.125,-0.6875,0
5740,0.6875,4.0625,0.0625,0
5760,2.3125,3.625,0.9375,0
5780,4.6875,3.1875,0.9375,0
5800,4.4375,3.4375,0.5,0
5820,3.5,3.1875,-0.25,0
5840,1.75,3.375,-1.5625,0
5860,3.3125,2.875,-2.4375,0
5880,4.1875,1.9375,-2.75,0
5900,4.3125,0.9375,-2.0625,0
5920,0.3125,-0.5625,-1.6875,0
5940,-3.3125,-2.0625,-1.8125,0
5960,-6,-3.0625,-2.9375,0
5980,-7.125,-2.9375,-3.5625,0
6000,-4.4375,-3.25,-4.125,0
6020,-2.5,-3.625,-3,0
6040,-0.8125,-2.875,-2.4375,0
6060,-1.125,-1.8125,-3.1875,0
6080,-2.875,-1.75,-3.375,0
6100,-4.625,-1.5625,-2.25,0
6120,-3.0625,-2.125,-0.4375,0
6140,0.1875,-2.1875,0.75,0
6160,1.75,-1.625,0.25,0
6180,1.6875,-1.6875,-0.625,0
6200,0.4375,0.1875,-1.3125,0
6220,1.0625,0.625,-0.6875,0
6240,3.75,-0.1875,1.6875,0
6260,5.4375,-0.375,2.5625,0
6280,6,0.1875,2.25,0
6300,4.5625,0.6875,2.125,0
6320,4.625,0.8125,1.625,0
6340,4.9375,1.0625,1.25,0
6360,5.625,1.5625,0.5625,0
6380,4.1875,1.75,0.5,0
6400,0.5,1.875,0.6875,0
6420,-1.75,2,0,0
6440,-2.25,1.375,0.25,0
6460,-1.5,1.0625,0.75,0
6480,-0.4375,1.75,1.1875,0
6500,0.6875,2.1875,1.0625,0
6520,0.4375,1.875,0.8125,0
6540,0,2,0.875,0
6560,-1.1875,2.5625,0.625,0
6580,-0.8125,2.5625,0.6875,0
6600,0.5,2.625,0.5,0
6620,0.375,2.6875,0.1875,0
6640,-0.4375,2.5625,-0.25,0
6660,-0.5625,1.5625,0.0625,0
6680,0.3125,0.5625,0,0
6700,0.125,0.875,-0.875,0
6720,0.375,1.125,-1.125,0
6740,0.4375,1.375,-0.8125,0
6760,0.25,1.125,-0.3125,0
6780,-0.1875,1.1875,0.0625,0
6800,-1.4375,1.3125,0.8125,0
6820,-1.625,1.625,1.125,0
6840,0.25,1.625,1.3125,0
6860,2.25,1.75,1.25,0
6880,3.75,2.1875,1.6875,0
6900,4.125,1.9375,2.5625,0
6920,3.5,2.125,2.75,0
6940,2.1875,2.4375,1.75,0
6960,1.625,2.5625,1,0
6980,1.9375,2.25,1.125,0
7000,3.375,1.375,1.5,0
7020,2.75,1.3125,1.0625,0
7040,1.0625,2.125,-0.0625,0
7060,-1.25,2.0625,-0.6875,0
7080,-1.0625,1.5,-0.5,0
7100,-1.1875,0.5,-0.0625,0
7120,-1,0.4375,0.5,0
7140,-2.625,0.5,-0.125,0
7160,-3.25,0.5625,0.0625,0
7180,-2.0625,0.0625,0.75,0
7200,1.5,-0.25,1.1875,0
7220,2.875,0.0625,0.625,0
7240,2.8125,-0.0625,0.375,0
7260,0.6875,0.375,0.875,0
7280,-1.125,0,0.375,0
7300,-2.5,-0.3125,0.0625,0
7320,-2.3125,-0.0625,-0.875,0
7340,-2.0625,-0.3125,-0.875,0
7360,-1.8125,-0.625,-0.0625,0
7380,-1.25,-1.0625,0.5625,0
7400,-1.3125,-1.4375,0.8125,0
7420,-0.3125,-0.9375,1.25,0
7440,0.875,-0.25,1.5625,0
7460,2.1875,0.1875,2.375,0
7480,2.5,0.1875,3.0625,0
7500,3.25,-0.6875,3.9375,0
7520,3.9375,-0.8125,4.125,0
7540,4.3125,-0.625,2.6875,0
7560,4,-0.6875,1.4375,0
7580,2.6875,-0.125,0.4375,0
7600,1.125,-0.0625,-0.3125,0
7620,-0.8125,-0.5625,-1,0
7640,-3.75,-1.3125,-2.75,0
7660,-5.875,-1.6875,-3.875,0
7680,-7.375,-1.1875,-4.75,0
7700,-8.6875,-0.4375,-5.3125,0
7720,-9.375,0.1875,-5,0
7740,-9.6875,1,-4.8125,0
7760,-9.875,2.5,-5,0
7780,-9.5,2.8125,-5,0
7800,-7.1875,2.625,-3.875,0
7820,-4.1875,2.25,-2.5625,0
7840,-3,2,-1.5,0
7860,-3.125,2.0625,-1.75,0
7880,-3.4375,2.125,-2.125,0
7900,-2.125,2.3125,-2.4375,0
7920,-0.75,2.0625,-3.25,0
7940,-1.625,1.9375,-3.5625,0
7960,-5.125,1.9375,-3.75,0
7980,-7.4375,2.375,-4.0625,0
8000,-8.5625,2.375,-4.3125,0
8020,-7.75,1.75,-3.6875,0
8040,-6.1875,1.375,-2.9375,0
8060,-4.875,1.3125,-2.0625,0
8080,-2.875,1.0625,-1.5,0
8100,-1.25,1.3125,-0.875,0
8120,-0.5,1.875,-1,0
8140,0.375,2,-1.4375,0
8160,-1.0625,2.375,-1,0
8180,-0.5625,2.375,-0.9375,0
8200,-2.1875,2.625,-0.8125,0
8220,-2.25,2.5625,-0.5625,0
8240,-3.0625,1.875,-0.5625,0
8260,-2.75,1.125,0.1875,0
8280,-1.8125,0.375,0.3125,0
8300,-2,0.4375,-0.75,0
8320,-1.1875,-0.375,-1.25,0
8340,-0.6875,-0.625,-0.125,0
8350,-1.125,-0.75,0.1875,0
8370,-1.25,-1,0,0
8390,-0.375,-0.9375,-0.5,0
8410,0.3125,-1.0625,-0.9375,0
8430,0.5625,-0.6875,-0.75,0
8450,-0.25,0,-0.625,0
8470,-0.6875,-0.25,-0.75,0
8490,-0.875,-0.375,-0.625,0
8510,-0.4375,-0.5,-0.3125,0
8530,0.4375,-0.8125,-0.125,0
8540,-0.0625,-1.375,-0.3125,0
8560,0.4375,-1.625,-0.4375,0
8580,-0.25,-1,-1.0625,0
8600,-2.3125,-0.4375,-1.5625,0
8620,-3.625,-0.625,-1.4375,0
8640,-4.5625,-0.5,-1.25,0
8660,-5.5,-0.75,-0.8125,0
8680,-4.9375,-0.9375,-1,0
8700,-5.625,-0.4375,-0.9375,0
8720,-4.5625,-0.4375,-0.875,0
8740,-3.25,-0.75,-0.3125,0
8760,-1.75,-0.375,-0.125,0
8780,-0.0625,-0.125,0.3125,0
8800,0,0.1875,0.5625,0
8820,-0.625,-0.3125,1,0
8840,-1.0625,-0.8125,0.625,0
8860,-1.9375,-1.0625,-0.125,0
8880,-3.4375,-1.1875,-0.875,0
8900,-4.1875,-1.0625,-1.1875,0
8920,-3.875,-0.875,-1.3125,0
8940,-3.8125,-0.75,-1.25,0
8960,-2.4375,-0.6875,-1.25,0
8980,-1.875,-0.1875,-0.875,0
9000,0.5625,0.25,0,0
9020,2.25,1.4375,1.125,0
9040,4.375,1.5625,1.125,0
9060,5.9375,1.5,0.9375,0
9080,6.6875,2.375,1.6875,0
9100,6,4,1.875,0
9120,7.125,4.1875,2.0625,0
9130,6.875,3.6875,2.0625,0
9150,5.375,3.6875,1.875,0
9170,4.5,4.625,0.875,0
9190,3.8125,4.0625,1.25,0
9210,5.75,3.6875,2.75,0
9230,7.4375,3.1875,2.3125,0
9250,8.875,2.125,2.25,0
9270,8.375,1.375,1.9375,0
9290,8.9375,0.5625,1.375,0
9310,8.3125,-1.4375,1.375,0
9330,6.25,-3.5625,-1.125,0
9350,9.75,-6.125,-0.4375,0
9370,7.625,-6.0625,-0.25,0
9390,5.25,-5.9375,-0.375,0
9410,5.625,-5.8125,0,0
9430,7.0625,-6.875,-0.5,0
9450,6.625,-6.625,-0.9375,0
9470,4.4375,-6.1875,-1.4375,0
9490,0.625,-5,-0.4375,0
9510,0.5625,-3.6875,1.375,0
9530,-1.1875,-2.5,2.375,0
9550,-2.1875,-3.5625,1.125,0
9570,-4.8125,-3.6875,0.8125,0
9590,-4.75,-2.9375,0.9375,0
9610,-1,-2.8125,2.6875,0
9630,1.75,-3,4.625,0
9650,2.1875,-2.4375,5.5,0
9670,0.5,-2.375,5.25,0
9690,-0.6875,-3.1875,4.6875,0
9710,0.375,-4.3125,4.5625,0
9730,0.0625,-5.4375,4.4375,0
9750,1.4375,-5.6875,3.6875,0
9770,0.75,-4.625,2.9375,0
9790,1.0625,-4.0625,0.9375,0
9810,-0.6875,-3.5,0.1875,0
9830,-2.75,-5.0625,0.6875,0
9850,-3.6875,-7.25,2.4375,0
9870,-6.5,-5.625,3.9375,0
9890,-7.4375,-3.0625,-0.75,0
9910,-7.6875,-1.75,-4,0
9930,-7.1875,-1.8125,-2.875,0
9950,-4.3125,-1.0625,-1.25,0
9970,-1.375,-0.5625,-1.625,0
9990,-0.8125,-0.0625,-1.6875,0
10010,-2.5,0.5,-0.6875,0
10030,-3.3125,1.375,-0.75,0
10050,-2.5625,0.625,-1.4375,0
10070,-1.375,-0.0625,-1.3125,0
10090,-0.6875,0.5,-0.5625,0
10110,-1.3125,1.3125,-0.375,0
10130,-3.1875,1.25,-0.6875,0
10150,-3.125,0.5625,-1.0625,0
10170,-0.875,0.3125,-1.0625,0
10190,1.4375,0.25,-0.4375,0
10210,1.625,0.3125,0.5,0
10230,0.375,0.8125,1,0
10250,0.25,1,0.875,0
10270,1.375,0.5,0.875,0
10290,3.625,0.625,2.25,0
10310,8.0625,-0.4375,3.0625,0
10330,8.8125,-0.75,3.5625,0
10350,8.75,-1.125,3.625,0
10370,7.8125,-0.75,3.4375,0
10390,8.5625,-1.375,3.5625,0
10410,8.5,-2.0625,3.875,0
10430,7.375,-2.5,3.6875,0
10450,5.875,-2.5,2.75,0
10470,4.0625,-3.0625,1.6875,0
10490,2.75,-3,0.9375,0
10510,0.8125,-2.9375,0.375,0
10530,-0.75,-3.0625,0.1875,0
10550,-3.125,-2.6875,-0.875,0
10570,-5,-1.875,-1.4375,0
10590,-4.875,-1.375,-1.875,0
10610,-4.3125,-1,-1.25,0
10630,-2.6875,-0.5,-0.75,0
10650,-3.0625,0.1875,-0.5625,0
10670,-2.4375,1.25,-0.8125,0
10690,-0.375,1.6875,-0.375,0
10710,0.0625,1.75,0.625,0
10730,0,1.3125,1.1875,0
10750,0.5,0.5,1.4375,0
10770,1.0625,0.75,1.0625,0
10790,1.75,1.75,0.4375,0
10810,1.875,1.6875,0.125,0
10830,1.3125,1.6875,0.25,0
10850,0.25,1.8125,0.25,0
10870,-0.8125,1.6875,-0.375,0
10890,-2.1875,1.75,-0.9375,0
10910,-3.875,1.875,-1.25,0
10930,-5.3125,1.5625,-1.4375,0
10950,-6.3125,1.5,-1.5625,0
10970,-5.8125,2.0625,-2.625,0
10990,-5.4375,3,-3.5,0
11010,-4.9375,3.375,-3.3125,0
11030,-5.25,3.3125,-3.125,0
11050,-5.3125,3.5625,-2.375,0
11070,-5.4375,3.5625,-2,0
11090,-6.5,3.1875,-1.6875,0
11110,-8.625,3.375,-1.6875,0
11130,-7.75,3.1875,-1.5,0
11140,-5.9375,3,-1,0
11160,-3.1875,2.8125,-0.6875,0
11180,-0.75,2.5625,-0.4375,0
11200,0,1.9375,-0.4375,0
11220,-2.0625,1.5,-0.8125,0
11240,-3.875,0.8125,-1.5,0
11260,-5,0.125,-0.9375,0
11280,-4.5625,0.0625,-0.1875,0
11300,-3.4375,-0.25,-0.0625,0
11320,-2.8125,-0.1875,0.125,0
11340,-1.9375,0.3125,0.0625,0
11360,-1.0625,0.1875,0.5625,0
11380,0.375,-0.0625,1,0
11400,1.75,-0.5,1.3125,0
11420,1.75,-0.875,1.125,0
11440,0.375,-0.8125,0.4375,0
11460,-0.6875,-0.9375,0.375,0
11480,-0.5625,-1.4375,0.625,0
11500,-0.5625,-1.5625,0.625,0
11520,-1.25,-1.875,-0.125,0
11540,-1.5,-2,-0.125,0
11560,-1.4375,-2.3125,0.4375,0
11580,0.125,-2.6875,1,0
11600,1.125,-2.5625,1.375,0
11620,1.75,-2.875,0.75,0
11640,-0.5,-2.0625,0.75,0
11660,-2.25,-0.5625,0.0625,0
11680,-4.0625,-0.625,0,0
11700,-4.0625,-1,0.25,0
11720,-0.625,-0.25,0.5,0
11740,-2.3125,1.25,0.5,0
11760,-4,0.9375,-0.3125,0
11780,-3.4375,0.5,0,0
11800,-1.875,-0.3125,0.8125,0
11820,-0.625,-0.1875,0.9375,0
11840,-0.625,0.0625,0.6875,0
11860,-0.9375,-0.3125,0.375,0
11880,-1,-0.25,0.5,0
11900,-0.3125,-0.5,0.8125,0
11920,-0.3125,-0.1875,0.875,0
11940,-0.875,-0.1875,0.375,0
11960,-1.625,-0.3125,0.1875,0
11980,-2.25,-0.6875,0.125,0
12000,-1.5625,-0.375,0.1875,0
12020,-2,-0.1875,-0.0625,0
12040,-3.4375,-0.125,-0.1875,0
12060,-4.375,-0.5,-0.75,0
12080,-4.9375,-0.8125,-0.4375,0
12100,-4.1875,-0.9375,-0.3125,0
12120,-3.875,-0.6875,-0.1875,0
12140,-3.5625,-0.875,-0.25,0
12160,-4.625,-1.0625,-0.125,0
12180,-3.75,-1.5625,-0.1875,0
12200,-5.3125,-1.25,0.1875,0
12220,-5.75,-1.3125,-0.6875,0
12240,-6.625,-0.75,-0.9375,0
12260,-6.5625,-0.8125,-0.6875,0
12280,-4.5625,-0.875,-0.125,0
12300,-3.125,-0.5,0.1875,0
12320,-1.875,0.0625,-0.25,0
12340,-2.4375,0.625,-0.5625,0
12360,-2,0.375,-0.5625,0
12380,-3.125,-1.1875,-0.125,0
12400,-4.1875,-1.375,0.5625,0
12420,-5.5,-0.5,1.375,0
12440,-4.5625,0.3125,0.75,0
12460,-0.625,0.25,0.3125,0
12480,4.75,-0.4375,0.875,0
12500,7.4375,-0.625,1.625,0
12520,6.6875,-0.8125,1.8125,0
12540,2.4375,-0.375,1.0625,0
12560,-1.375,0.5,0,0
12580,-2.625,0.1875,-1,0
12600,-2.3125,-1.1875,-0.75,0
12620,-2.125,-2.0625,-0.5625,0
12640,-3.625,-1.375,-0.8125,0
12660,-3.875,-0.4375,-1,0
12680,-3.3125,-0.125,-0.8125,0
12700,-0.8125,0.25,-0.5625,0
12720,1,0.0625,-0.375,0
12740,0.9375,0.1875,0.3125,0
12760,-0.1875,0.5,-0.4375,0
12780,-1.3125,0.6875,-1,0
12800,-2.625,0.5625,-1.125,0
12820,-2.875,0.375,-1.375,0
12840,-3.5,0.25,-1.3125,0
12860,-2.625,0.8125,-0.875,0
12880,-1.5625,1.125,-1.0625,0
12900,-0.4375,1.25,-0.6875,0
12920,1.125,0.8125,-0.25,0
12940,0.8125,0.4375,0.0625,0
12960,0.75,0.5,0,0
12980,-0.1875,0.5,0.0625,0
13000,0.5625,-0.0625,0.1875,0
13020,0.25,-0.3125,0.4375,0
13040,0.5,-0.0625,0.5,0
13060,0.9375,0,0.75,0
13080,1.25,-0.125,1,0
13100,2.5625,0,1.0625,0
13120,1.875,0.25,1.0625,0
13140,2.375,0.0625,0.375,0
13160,1.75,-0.6875,0.4375,0
13180,2.0625,-1.125,0.9375,0
13200,3.1875,-1.125,0.8125,0
13220,3.9375,-1,0.625,0
13240,3.875,-0.625,0.875,0
13260,3.4375,-1.5625,1,0
13280,2.125,-1.8125,1.375,0
13300,0.75,-1.875,1.25,0
13320,-2.375,-2.125,0.875,0
13340,-4.375,-3.0625,0.6875,0
13360,-5.125,-4.75,1.8125,0
13380,-6.375,-4.125,3.25,0
13400,-10.1875,0.625,0.375,0
13420,-11,3.6875,-3.9375,0
13440,-13.75,5.5,-4.375,0
13460,-16.3125,5.3125,-2.4375,0
13480,-13.5,5.0625,-0.0625,0
13500,-8.125,3.4375,2.5625,0
13520,-3.8125,3.6875,2.9375,0
13540,-1.5,3.3125,3.25,0
13560,0.75,1.75,5.6875,0
13580,5.625,0.75,8.125,0
13600,12.4375,0.125,9.3125,0
13620,15.9375,1.0625,8.3125,0
13640,15.9375,1.0625,7.1875,0
13660,15.8125,-0.375,6.875,0
13680,14.875,-1.8125,7.3125,0
13700,12.75,-2.6875,5.875,0
13720,9.25,-3.5625,3.375,0
13740,5.625,-5.125,1.5,0
13760,3.1875,-6.125,1.5,0
13780,2.5625,-7.3125,0.9375,0
13800,0,-7.25,0.3125,0
13820,0.875,-7.5,-1,0
13840,-1.4375,-6,-1.1875,0
13860,-1.4375,-5.5,-1.875,0
13880,-2.375,-5.75,-1.6875,0
13900,-3.25,-4.75,-1.8125,0
13920,-4.5,-4.5625,-2.9375,0
13940,-7.1875,-4.9375,-2.375,0
13960,-8.6875,-5.375,-2.1875,0
13980,-10.125,-5.0625,-2.125,0
14000,-10.125,-5.125,-2.0625,0
14020,-11.125,-5,-1.625,0
14040,-10.6875,-4,-0.9375,0
14060,-8.6875,-3.25,-0.25,0
14080,-5.625,-2.5,0.8125,0
14100,-1.9375,-2.0625,1.6875,0
14120,0.375,-1.5,2.9375,0
14140,0.625,-1.3125,4.625,0
14160,1.3125,-1,5.0625,0
14180,0.875,-1.1875,6.0625,0
14200,3.5,-1.4375,6.5,0
14220,6.75,-1.9375,7.125,0
14240,10.6875,-3.375,6.875,0
14260,12.75,-4.625,7.1875,0
14280,12.125,-5.1875,6.25,0
14300,10.625,-5.0625,4.75,0
14320,8.8125,-4,3.75,0
14340,7,-3.3125,2.125,0
14360,9.1875,-3.125,-0.1875,0
14380,8.6875,-3,-2.875,0
14400,1.6875,-0.6875,-7.375,0
14420,-13.75,-7.875,-11.625,0
14440,-14.8125,-12.3125,-20.125,0
14460,-28.4375,-18.8125,-29.4375,0
14480,-39.875,-24.25,-36.625,0
14500,-52.5625,-25.625,-40.75,0
14520,-59,-29.5625,-47.375,0
14540,-59.125,-31.1875,-57.6875,0
14560,-52.375,-29,-70.4375,0
14570,-46.8125,-27.5,-84,0
14590,-54.8125,-24.4375,-94.3125,0
14610,-72.125,-10,-106.062,0
14630,-77.75,-1.875,-120.5,0
14650,-67.625,-3.3125,-132.312,0
14670,-57.3125,-3.1875,-136.562,0
14690,-42.3125,3.4375,-133.5,0
14710,-29.625,12.875,-132.875,0
14730,-19.125,13.8125,-126.188,0
14750,-3.375,15,-121,0
14770,15.9375,16.125,-116,0
14790,21.5625,17.4375,-115.875,0
14810,11.6875,21.375,-112.438,0
14830,1.1875,19.625,-111.062,0
14850,-1.8125,17,-104.875,0
14870,10.6875,15.3125,-90.0625,0
14890,25.625,19.5,-72.125,0
14910,21.625,32.8125,-57.5,0
14930,6.3125,39.75,-47.4375,0
14950,8.875,33.5,-44.5,0
14970,5.8125,20.8125,-43.8125,0
14990,6.875,24.25,-39.4375,0
15010,0.5,36.8125,-19.625,0
15030,1,29.4375,-7.6875,0
15050,5.5,13.5,-2.8125,0
15070,9.625,6.875,-2.6875,0
15090,0,16.3125,2.25,0
15110,-0.375,28,11.125,0
15130,-0.1875,31.4375,20.375,0
15150,1.8125,31.6875,20.5,0
15170,-0.625,34.125,19.5625,0
15190,-2.625,28.5625,13.8125,0
15210,-10.625,18.875,9.125,0
15230,-17.5,21.875,5.0625,0
15250,-23.25,29.3125,6.125,0
15270,-26.25,34,13.875,0
15290,-23.3125,39.6875,30.25,0
15310,-13.5625,39.1875,45.875,0
15330,-5.6875,34.75,47.0625,0
15350,-0.375,30.875,32.6875,0
15370,1.8125,38.25,25.125,0
15390,-5.375,48.6875,36.25,0
15410,3.0625,65.1875,49.4375,0
15430,1.75,76.8125,56.3125,0
15450,-14.5625,83.9375,69.4375,0
15470,-0.5625,60.1875,48.9375,0
15490,11.0625,49.875,32.8125,0
15510,1.125,70.6875,31.9375,0
15530,-31.75,71.5,16,0
15550,-43.625,40.25,1.6875,0
15570,-15,29,7.75,0
15590,5.8125,34.375,7.125,0
15610,18.875,29.4375,7.9375,0
15630,12.0625,25.8125,11.875,0
15650,7.5,15.625,8.625,0
15670,9,-2.75,1,0
15690,23.5625,-8.8125,1.1875,0
15710,14.375,-5.125,2.3125,0
15730,4.375,0.5625,-2.75,0
15750,-3.1875,5.9375,-5.1875,0
15770,-1.3125,0.3125,-1.8125,0
15790,5.625,-6.4375,-0.625,0
15810,-0.5,-7.25,-4.375,0
15830,-3.0625,0.5625,-6.75,0
15850,-8.375,5.75,-10.5625,0
15870,-15.3125,10.0625,-15.4375,0
15890,-16.625,16.25,-17,0
15910,-13.9375,15.375,-15.625,0
15930,-15.0625,11.5625,-16.6875,0
15950,-9.5,10.3125,-16.875,0
15970,-8.5,11.6875,-15.8125,0
15990,-11.125,1.8125,-16.9375,0
16010,-9.75,3.75,-17.4375,0
16030,-9.875,11.3125,-15.0625,0
16050,-13.25,5.75,-16.75,0
16070,-9.375,1.1875,-21.25,0
16090,-9.1875,2.1875,-19.75,0
16110,-13.75,6.0625,-15.1875,0
16130,-10,7.25,-14.4375,0
16150,-11,18.125,-12.1875,0
16170,-18.375,22.375,-7.4375,0
16190,-12.0625,10.3125,-3.875,0
16210,-5.5625,4.4375,-3.4375,0
16230,-5.9375,10.9375,-1.4375,0
16250,-9.8125,18.125,3.25,0
16270,-14.125,17.875,6.625,0
16290,-10.0625,7.375,10.25,0
16310,-4.375,-2.25,15.25,0
16330,-1.1875,0.9375,19.125,0
16350,-6,5.0625,20.8125,0
16370,-8.75,2.9375,18.9375,0
16390,-8.5625,-2.5625,15.5,0
16410,-7.6875,0.5,14.5625,0
16430,-9.25,5.6875,11.4375,0
16450,-10.9375,7,8.25,0
16470,-9.6875,5.1875,5.8125,0
16490,-8.125,2.75,2.8125,0
16510,-8.25,3.0625,2.125,0
16530,-6.5625,4.3125,1.4375,0
16540,-5.125,7.125,0.5,0
16560,-5.625,8.875,1.0625,0
16580,-4.25,5.375,0.75,0
16600,-1.3125,1.0625,2.0625,0
16620,-1.3125,2.125,1.625,0
16640,-1.1875,2.625,1.1875,0
16660,-1.375,2.75,1.9375,0
16680,-1.4375,4.3125,3.1875,0
16700,-2.1875,5.6875,4.625,0
16720,-2.9375,7.375,6.125,0
16740,-2,10.125,8.5625,0
16760,-3.1875,15.625,10.25,0
16780,-4.4375,17.375,10.0625,0
16800,-3.6875,17.625,10.375,0
16820,-3.3125,15.6875,10.25,0
16840,-3,11.375,8.5625,0
16860,-4.5625,10.375,5.5,0
16880,-4.25,6.3125,4.1875,0
16900,-2.6875,2.1875,3.6875,0
16920,-1.25,0.375,3.6875,0
16940,-3,-0.3125,1.125,0
16960,-3,-3.1875,0.4375,0
16980,2.1875,-7.6875,3.125,0
17000,4.125,-8.875,5.125,0
17020,3.3125,-3.125,5.125,0
17040,-1.875,1.3125,5.6875,0
17060,-2.5625,1.375,8.3125,0
17080,-1.125,-4.3125,8.375,0
17100,-1.4375,-7.125,8.0625,0
17120,-5.5625,-5.625,3.375,0
17140,-7.375,-12,-1.875,0
17160,-2.6875,-22.6875,-3.3125,0
17180,2.125,-27.125,-4.4375,0
17200,0.3125,-28.125,-7.1875,0
17220,-5.1875,-24.75,-7.6875,0
17240,-13,-23.3125,-7.625,0
17260,-10.875,-34.875,-6.5625,0
17280,-6.3125,-46.1875,-6.6875,0
17300,-6.1875,-55,-8.625,0
17320,-8.25,-60.1875,-9.125,0
17340,-7.4375,-67.4375,-9.6875,0
17360,-5.375,-70.6875,-9.4375,0
17380,-7.8125,-68.125,-13.5,0
17400,-11.8125,-66.5625,-17.625,0
17420,-11.1875,-62.3125,-17.9375,0
17440,-4.375,-59.1875,-15.25,0
17460,-3,-55.25,-17,0
17480,-6.3125,-51.5625,-17.75,0
17500,-3.5625,-45.4375,-17.1875,0
17520,0.1875,-38.5625,-13.25,0
17540,1.625,-30.5625,-14.625,0
17560,0.625,-28.4375,-18.4375,0
17580,7.0625,-31.625,-15.4375,0
17600,9.9375,-26.5625,-9.6875,0
17620,4.8125,-15.4375,-6.0625,0
17640,-5.1875,-8.625,-7.625,0
17660,-10,-10.3125,-9.125,0
17680,3,-11.625,-5.75,0
17700,5.9375,-11.75,-4.0625,0
17720,1.8125,-10.9375,-6.8125,0
17740,-6,-9.375,-8.8125,0
17760,-4.4375,-12.5,-6.6875,0
17780,5.75,-20.875,-1.5625,0
17800,13.125,-23.4375,-1.5,0
17820,6.125,-22.9375,-2.125,0
17840,-4.0625,-17.8125,-0.25,0
17860,-7.375,-13.125,3.3125,0
17880,-8.5,-11.6875,8.375,0
17900,-6.0625,-16,7.25,0
17920,-6.0625,-19.1875,9.6875,0
17940,-10.8125,-20.25,17.6875,0
17960,-18.25,-17.625,24.625,0
17980,-23.5625,-12.4375,33.3125,0
18000,-20.1875,-12.3125,41.5625,0
18020,-21.375,-11.3125,37.75,0
18040,-29.625,-3.625,28,0
18060,-43.1875,8.625,11.25,0
18080,-56.375,10.5,-3.6875,0
18100,-55.25,9.75,-8.9375,0
18120,-32.375,15.1875,-5.625,0
18140,2.125,16.6875,-13,0
18160,-0.6875,11.8125,-19.125,0
18180,-7.125,1.8125,-21.4375,0
18200,2.9375,3.25,-15.25,0
18220,18.875,5.1875,-8.25,0
18240,20.0625,6.4375,-0.9375,0
18260,7.3125,5,3.25,0
18280,7.5,-0.8125,8.625,0
18300,15.4375,-1.75,16.6875,0
18320,15.4375,1.25,22.9375,0
18340,5.5,2.6875,21.6875,0
18360,1.125,0,24.125,0
18380,4.9375,6.4375,35,0
18400,7.75,6.875,41.1875,0
18420,22.3125,3.125,47.375,0
18440,33.1875,20.5,65.125,0
18460,22.375,47.4375,84.625,0
18480,0.125,57.5625,95.375,0
18500,-11.5,62.6875,102,0
18520,1.6875,61.4375,94.5625,0
18540,28.3125,67.375,92.6875,0
18560,45.4375,78.375,97.0625,0
18580,35.1875,81.1875,87.5,0
18600,22.4375,94.25,70,0
18620,32.1875,102.062,47.5,0
18640,56.3125,111.062,25,0
18660,72.375,137.875,6.1875,0
18680,68.25,149.312,-5.5,0
18700,52.1875,119,-34.125,0
18720,31.5625,105.5,-45.1875,0
18740,50.125,148.75,-51.4375,0
18760,77.25,135.938,-59.1875,0
18780,82.5,104.75,-20.0625,0
18800,67.4375,70.625,14.25,0
18820,53.8125,40.1875,31.25,0
18840,34.75,27.0625,36.75,0
18860,6.625,4.6875,22.3125,0
18880,9.0625,-39.125,-17.9375,0
18900,19.1875,-43.5625,-31.125,0
18920,-2.8125,-27.4375,-48.375,0
18940,-9.625,-16.375,-61.9375,0
18960,4.125,-17.5625,-63.3125,0
18980,13,-18.375,-54.625,0
19000,16,-20.8125,-51.625,0
19020,14.6875,-19.25,-52,0
19040,8.4375,-13,-50.9375,0
19060,2.9375,-4.1875,-51.875,0
19080,-2,0.3125,-56.25,0
19100,-2,-0.6875,-58.3125,0
19120,-3.625,-3.4375,-55.875,0
19140,-6.3125,-4.9375,-51.875,0
19160,-6.0625,-7.6875,-47.4375,0
19180,-3.5625,-10.125,-42.0625,0
19200,-1.125,-15.6875,-30.5,0
19220,1.3125,-32.0625,-19.4375,0
19240,7.0625,-32.75,-13.375,0
19260,0.375,-16.3125,-5.375,0
19280,-9.75,-9.3125,0.125,0
19300,-0.4375,-20.5,-2.375,0
19320,8.625,-23.75,-2.4375,0
19340,2.25,-10.5,-1.4375,0
19360,-5.0625,-7,-1.3125,0
19380,-2.5625,-13.625,-7.375,0
19400,0.3125,-16.5625,-12.0625,0
19420,0.6875,-11.1875,-10.125,0
19440,-1,-3.5625,-6.5625,0
19460,3.75,-9.25,-5.3125,0
19480,12.625,-14.125,-10.1875,0
19500,15.3125,-10.8125,-13,0
19520,7.625,-5.6875,-12.375,0
19540,9.0625,-9.0625,-5.375,0
19560,11.125,-6.625,-7.125,0
19580,5.375,3,-5.5625,0
19600,1.1875,15.5,-3.125,0
19620,-2.5,20.1875,-4.625,0
19640,-0.125,15.3125,-0.375,0
19650,4.5,9.3125,0.4375,0
19670,6.3125,7.9375,2.75,0
19690,1.375,9.9375,4.625,0
19710,-3.8125,12.5625,4.8125,0
19730,-3.375,10.5625,5.625,0
19750,-1.0625,4.4375,6.875,0
19770,1.125,-2.1875,8.6875,0
19790,0,-7.4375,10.1875,0
19810,-2.625,-9.625,9.625,0
19830,-4.5625,-10.5625,9.1875,0
19850,-2.75,-17.8125,8.1875,0
19870,3.6875,-25.3125,7.875,0
19890,6.6875,-26.8125,8.3125,0
19910,-2.75,-25.125,7.0625,0
19930,-5.3125,-28.375,3.5625,0
19950,2.5625,-37.9375,5.6875,0
19970,9.25,-44,7.875,0
19980,13.4375,-44.5,8.375,0
20000,11.75,-45.8125,6.75,0
20020,8.9375,-47.4375,9,0
20040,8.875,-49.375,8.8125,0
20060,7.4375,-52.3125,9.0625,0
20080,4.5625,-49.0625,11.4375,0
20100,2.75,-48.6875,11.6875,0
20120,3.1875,-51.125,8.3125,0
20140,-0.8125,-49.5,5.875,0
20160,-2,-48.4375,5.875,0
20180,-3.5,-47.9375,4.625,0
20190,-2.375,-44.9375,6.0625,0
20210,-2.75,-41.3125,8.5625,0
20230,-3.875,-39.9375,11.6875,0
20250,-2.625,-41.3125,14,0
20270,-2.6875,-40.375,18.1875,0
20290,-2.25,-39.875,23.5625,0
20310,-2.625,-40.6875,28.6875,0
20330,-4.875,-41.75,35.5,0
20350,-6.6875,-43.625,44.4375,0
20370,-10.0625,-45.125,54.125,0
20390,-15.625,-49.0625,63.5625,0
20410,-20,-51.1875,72.0625,0
20430,-25.375,-48.0625,80.75,0
20450,-28.9375,-44.375,85.875,0
20470,-38.125,-43.8125,87.1875,0
20490,-42.0625,-44.4375,90.875,0
20510,-31.75,-47.75,90.125,0
20530,-31.5625,-42.375,92.5625,0
20550,-34.8125,-40.5,100,0
20570,-33.375,-42.75,101.75,0
20590,-24.1875,-39.1875,95.75,0
20610,-10.25,-35.75,95.625,0
20630,-0.9375,-31.375,94.875,0
20650,8.5625,-31.125,92.9375,0
20670,12.0625,-27,88.75,0
20690,18,-29.25,80,0
20710,18.4375,-33.25,78.625,0
20730,14.875,-29.75,77.3125,0
20750,23.4375,-26.625,73,0
20770,25.25,-24.125,66.625,0
20780,21.25,-21.1875,56.5,0
20800,16,-17.375,37,0
20820,7.875,-7,14.8125,0
20840,-15.0625,5.5,-1.9375,0
20860,-31.9375,8.9375,-9.75,0
20880,-28.4375,1.1875,-7.125,0
20900,-11.5,-4.3125,-3.8125,0
20920,-1.0625,-10.25,-2.0625,0
20940,-1.8125,-14.375,-0.625,0
20960,-8.0625,-16.3125,2.3125,0
20980,-13.5,-19.5,6.0625,0
21000,-14.875,-26.125,11.125,0
21020,-17.625,-30.875,13,0
21040,-23.1875,-24.25,6.9375,0
21060,-34.375,-11.8125,-5.75,0
21080,-41.0625,-2.4375,-13.3125,0
21100,-36.3125,0.125,-8.75,0
21120,-22.4375,-2.1875,0.25,0
21140,-6.5,-3.5625,8.375,0
21160,7.375,-2.1875,9.625,0
21180,13.8125,-0.625,6.625,0
21200,13.25,0.8125,2.5,0
21220,9.9375,1.1875,1.1875,0
21240,8.375,0.5,2.25,0
21260,7.4375,-0.8125,2.25,0
21280,5.5625,-1.0625,0.75,0
21300,2.8125,-1.5625,-1.625,0
21320,-1,-1.625,-3.1875,0
21340,-4,-0.6875,-4.0625,0
21360,-5.5,0.9375,-4.375,0
21380,-5.5625,2,-4.5,0
21400,-6.4375,2.0625,-4.9375,0
21420,-4.3125,2.375,-4.5625,0
21440,-3,2.8125,-4.75,0
21460,-2.6875,3.5,-4.875,0
21480,-2,3.1875,-4.6875,0
21500,-1.875,2.25,-4.5,0
21520,-0.875,2,-4.8125,0
21540,-1.75,2.0625,-5.375,0
21560,-2.75,1.9375,-5.8125,0
21580,-3.0625,2.4375,-6.1875,0
21600,-3.75,2.8125,-6.3125,0
21620,-5.5,2.875,-6.6875,0
21640,-6.1875,3.4375,-6.5,0
21660,-6.625,3,-6.1875,0
21680,-6.25,2.5625,-5.4375,0
21700,-4.75,1.6875,-4.1875,0
21720,-3.75,0.875,-3.4375,0
21740,-2.0625,0.3125,-2.125,0
21760,-0.75,-0.3125,-0.9375,0
21780,1.1875,-0.625,0.4375,0
21800,2.875,-0.9375,1.5625,0
21820,4.875,-1.375,2.3125,0
21840,6.875,-1.25,3,0
21860,8.5,-1.75,3.6875,0
21880,9.5,-1.8125,4.9375,0
21900,10.25,-2.125,5.1875,0
21920,9.9375,-2.25,4.625,0
21930,9.625,-2.5,4.3125,0
21950,8.9375,-3.0625,4.4375,0
21970,8.6875,-3.3125,4.125,0
21990,7.8125,-2.9375,3.375,0
22010,6.375,-2.75,2.375,0
22030,4.5,-2.125,1.125,0
22050,2.4375,-1.1875,0.625,0
22060,1.5625,-0.5625,0.6875,0
22080,1.8125,-0.1875,0.5,0
22100,0.9375,0.0625,-0.5625,0
22120,0.6875,-0.25,-0.875,0
22140,2.25,-0.5,0.1875,0
22160,4.5,-0.4375,1,0
22180,6.375,-0.8125,1.75,0
22200,6,-1.625,1.8125,0
22220,5.75,-2.125,1.8125,0
22240,5.75,-2.125,1.8125,0
22260,5.375,-2.125,2.0625,0
22280,4.375,-2,2.3125,0
22300,4.375,-1.5625,2.125,0
22320,3.8125,-1.25,1.9375,0
22340,2.9375,-1.1875,1.8125,0
22360,2.5625,-1.25,1.5,0
22380,2.125,-0.9375,1,0
22400,1.9375,-0.5625,0.6875,0
22420,1.25,-0.75,0,0
22440,0.375,-1.0625,-0.5,0
22460,-0.9375,-0.75,-0.75,0
22480,-1.5,-0.5,-0.875,0
22500,-2.5625,-0.1875,-1,0
22520,-2.4375,0.0625,-1,0
22540,-1.8125,-0.125,-0.8125,0
22560,-1.0625,0.0625,-0.5625,0
22580,-1,-0.0625,-0.5,0
22600,-1.25,0.25,-0.625,0
22620,-1.375,0.375,-0.375,0
22640,-0.9375,0.1875,-0.1875,0
22660,-1.5,0.75,-0.25,0
22680,-1.6875,0.625,0,0
22700,-1.4375,0.1875,0,0
22720,-1.0625,1.5,-0.0625,0
22740,-0.75,0.625,-0.4375,0
22760,0.375,-0.125,-0.25,0
22780,0.75,0.625,-0.8125,0
22800,-1.25,1.3125,-1.125,0
22820,-3.375,0.75,-1.125,0
22840,-3.875,0.3125,-0.75,0
22860,-3.125,-0.0625,-0.8125,0
22880,-3.125,-0.0625,-1.1875,0
22900,-3.875,0.5625,-1.25,0
22920,-3.6875,0.625,-1.1875,0
22940,-2.8125,0.4375,-0.75,0
22950,-2.125,1.0625,-0.375,0
22970,-2.8125,1,-0.375,0
22990,-1.875,0.5625,-0.25,0
23010,-1.1875,0.625,0.125,0
23030,-0.625,0.75,0.3125,0
23050,-0.875,0.5,0.5,0
23070,-0.9375,0.375,0.3125,0
23090,-0.8125,0.5,0.1875,0
23110,-1.0625,0.625,0.5,0
23130,-0.5625,0.3125,0.5625,0
23150,-0.125,0.4375,0.375,0
23170,-0.25,0.5,0.0625,0
23190,-1.0625,0.5,0.1875,0
23210,-0.875,-0.25,0.1875,0
23230,0.125,-0.25,0.375,0
23250,0.9375,0.0625,0.625,0
23270,1.25,-0.1875,0.5625,0
23290,1.0625,-0.0625,0.1875,0
23310,1.1875,0.25,0.3125,0
23330,1.0625,0.0625,0.5625,0
23350,0.6875,0.125,0.375,0
23370,1.0625,0.25,0.4375,0
23390,0.8125,0.0625,0.3125,0
23410,1,0.3125,0.5,0
23430,0.75,0.5,0.5625,0
23450,0.5,0.25,0.375,0
23470,0.5625,0.1875,0.375,0
23490,0.875,0.3125,0.4375,0
23510,1.375,0.375,0.625,0
23530,2.375,0.75,0.3125,0
23550,2.8125,1.9375,0.3125,0
23570,3.1875,1.375,0.375,0
23590,2.1875,2.5,0,0
23610,1.3125,2.1875,0.375,0
23630,0.5,1.75,0.8125,0
23650,-3.5,2.5625,1.1875,0
23670,-5.1875,2.3125,0.6875,0
23690,-2.5,3.5,0.5,0
23710,-0.8125,4.6875,0.3125,0
23730,0.5,4.1875,0.4375,0
23750,2.375,4.3125,0.4375,0
23770,7.3125,3.9375,0.5625,0
23790,7.875,3.9375,0.875,0
23810,7.4375,3.6875,0.125,0
23830,5.8125,2.8125,-0.125,0
23850,5.3125,2.875,-0.6875,0
23870,5.1875,2.4375,-0.5625,0
23890,6.3125,0.8125,-0.5625,0
23910,6,-0.4375,-1.3125,0
23930,4.4375,-0.3125,-2.1875,0
23950,2,1.3125,-2.0625,0
23970,2.125,1.75,-1.1875,0
23990,0.5625,1.8125,-0.9375,0
24010,-0.375,3.1875,-0.5625,0
24030,-0.3125,3.5,-0.375,0
24050,-0.625,3.25,0.1875,0
24070,-0.6875,3.5,0.6875,0
24090,-0.375,2.8125,0.9375,0
24110,-0.25,3.125,0.9375,0
24130,0.0625,4.1875,0.625,0
24150,-2.3125,5.8125,0.9375,0
24170,-3.125,5.75,0.625,0
24190,-1.9375,5.8125,1,0
24210,0.875,5.1875,1.375,0
24230,1.875,3.875,1.5625,0
24250,1.4375,4.25,1.5625,0
24270,2.125,5.25,1.5625,0
24290,2.375,5.3125,1.875,0
24310,3,4.5625,1.875,0
24330,4.375,3.8125,1.75,0
24350,4.4375,2.8125,1.25,0
24370,4.625,2.8125,0.6875,0
24390,4.3125,2.8125,1.0625,0
24410,4.4375,1.8125,1.4375,0
24430,3.3125,1.0625,0.3125,0
24450,3.25,1,0.3125,0
24470,2.75,0.6875,0.4375,0
24490,2.125,0.75,0.6875,0
24510,1.875,0.4375,0.375,0
24530,1.125,-0.125,0,0
24550,0.4375,0.8125,0.125,0
24570,0.8125,0.875,0.1875,0
24590,1.6875,0.5,0.3125,0
24610,1.75,0.3125,0.5,0
24630,1.625,1,0.625,0
24650,0.6875,1.375,0.5625,0
24670,-1.125,1.5625,0.75,0
24690,-1.6875,1.625,0.8125,0
24710,-1.5625,1.25,0.875,0
24730,-0.625,0.9375,1.0625,0
24750,-0.5625,1.5,1.1875,0
24770,-0.3125,1.1875,1.125,0
24790,-0.0625,0.375,1.5625,0
24810,0.6875,-0.3125,1.3125,0
24820,0.9375,-0.5,1.3125,0
24840,1.1875,0,1.5,0
24860,0.5625,0.0625,1.8125,0
24880,1.375,-0.5625,2.1875,0
24900,1.875,-0.5,1.625,0
24920,1.4375,-0.25,1.5625,0
24940,1.4375,-0.375,1.4375,0
24960,0.3125,0.125,1.5,0
24980,0.125,0.25,1.1875,0
25000,-1.125,0.5,1.125,0
25020,0,0,1,0
25040,1.25,0.0625,0.75,0
25060,2.375,-0.25,1.25,0
25080,3.25,-0.5,2,0
25100,3.625,-0.9375,2,0
25120,4.125,-0.625,1.6875,0
25140,3.875,-0.1875,0.9375,0
25160,2.375,0.1875,0.6875,0
25180,0.4375,0.25,0.1875,0
25200,-0.125,0.25,0.0625,0
25220,0,0.25,-0.0625,0
25240,1.0625,0.25,0.375,0
25250,1.0625,0.375,0.5,0
25270,0.8125,0.5,0.875,0
25290,0.4375,0.25,0.8125,0
25300,0,0.1875,0.5625,0
25320,-0.5,0.5625,0.5625,0
25340,-0.5625,0.9375,0.375,0
25360,-1.0625,1,0.4375,0
25380,-1.5625,1.25,0.4375,0
25400,-1.8125,1.6875,0.6875,0
25420,-0.8125,1.8125,0.8125,0
25440,0.6875,1.5625,1,0
25460,0.75,1.5,1.125,0
25480,1,1.375,1.3125,0
25500,0.625,1.5625,1.5,0
25520,0.3125,1.5625,1.4375,0
25540,-0.5,1.4375,1.125,0
25560,-0.25,1.4375,0.9375,0
25580,-1.0625,1.5,0.6875,0
25600,-1.8125,1.5,0.5,0
25620,-1.125,1.3125,0.5,0
25640,-0.4375,1,0.4375,0
25660,0.0625,1.1875,0.625,0
25680,-0.25,1.0625,0.5,0
25700,0,0.5625,0.5625,0
25730,0.75,0.4375,0.6875,0
25750,0.9375,0.375,0.625,0
25780,0.125,0.375,0.5,0
25800,0.3125,0.0625,0.25,0
25820,0.375,-0.25,0.6875,0
25840,0.6875,-0.5,0.75,0
25850,1.125,-0.3125,0.8125,0
25860,1.8125,-0.25,0.6875,0
25880,2.1875,-0.25,0.6875,0
25900,2.0625,-0.0625,0.75,0
25900,1.1875,0.125,0.875,0
25920,0.875,0,1,0
25940,1.25,0,0.4375,0
25960,1.3125,0.0625,0.375,0
25980,0.875,0.1875,0.5625,0
26000,0.25,0.4375,0.9375,0
26020,-0.1875,0,0.625,0
26040,0.375,0.1875,0.6875,0
26060,1.625,0.0625,1.1875,0
26080,1.5625,-0.125,1.1875,0
26100,1.375,-0.375,1.0625,0
26120,1.4375,-0.1875,1.25,0
26140,2.5625,-0.5,1.8125,0
26160,3.125,-0.75,1.875,0
26180,4,-1.0625,2.5625,0
26200,5.25,-1.5625,3.5625,0
26220,5.75,-1.6875,4.1875,0
26240,7.6875,-0.375,5.125,0
26260,8.875,0.25,6.6875,0
26280,7.125,2.125,6.875,0
26300,7.3125,3.625,6.75,0
26320,6.875,8.5,6.0625,0
26360,3.375,14.1875,-5.875,0
26380,5.9375,15.0625,-12.0625,0
26400,8.0625,17.375,-16.9375,0
26420,7.25,23.5,-21.5625,0
26440,0.5625,28.8125,-30.8125,0
26460,-2.375,34.375,-39.0625,0
26480,0.625,42.5,-49.625,0
26500,-0.3125,53.3125,-56.9375,0
26520,-2.3125,64.375,-68.75,0
26540,-2.375,73.625,-85.0625,0
26560,-7.5,81.6875,-97.25,0
26580,-8.6875,89.125,-105.188,0
26600,-1.8125,93.8125,-110.625,0
26620,6,97.8125,-117.062,0
26640,8.5625,102.062,-119.125,0
26660,13.375,105.438,-117.688,0
26680,21.8125,102.375,-111.812,0
26700,29,95.375,-102.188,0
26720,32.0625,86.25,-92.875,0
26740,30.75,77.1875,-83.6875,0
26760,29.1875,67.375,-72.3125,0
26780,30.1875,57.875,-60.625,0
26800,28.25,47.9375,-49.375,0
26820,28.0625,39.0625,-41,0
26840,26.4375,34.125,-32.8125,0
26860,26.6875,29.0625,-25.1875,0
26880,25.5625,23.75,-17.75,0
26900,24,19.5,-10.5625,0
26920,22.875,14.8125,-6.375,0
26940,20.3125,13.125,-2.125,0
26960,18.0625,14.125,2.8125,0
26980,15,13.375,5.5,0
27000,11.1875,12.0625,7.8125,0
27020,6.25,10.1875,7.625,0
27040,3.6875,10.125,7.0625,0
27060,2,9.875,7,0
27080,1.75,7.625,7,0
27100,0.875,4.6875,8.9375,0
27120,-1.6875,1.75,10.25,0
27140,-2.5625,-2.9375,10.0625,0
27160,-1.75,-3.375,11.4375,0
27180,-4.4375,-2.375,11.5625,0
27200,-4.75,-1.5,9.375,0
27220,-3.875,1,8.25,0
27230,-3.5,2.5625,5.6875,0
27250,-0.375,3.8125,2.625,0
27270,-1,5.9375,0,0
27290,-2.3125,6.875,-2.125,0
27310,-2.1875,6.5625,-3.6875,0
27330,-0.8125,5.1875,-4.25,0
27350,-0.1875,4.125,-3.625,0
27370,1.5,2.9375,-2.75,0
27390,2.75,2.5,-2.25,0
27410,2.8125,1.5,-0.9375,0
27430,2.9375,-0.0625,-1.125,0
27450,2.375,-1.25,-1.0625,0
27470,3.9375,-1,-0.5625,0
27490,2.75,0.1875,0.25,0
27510,0.25,-1.0625,-0.5,0
27530,-0.875,-1.3125,0.1875,0
27550,-1.375,-1.3125,1.0625,0
27570,-0.6875,0.9375,1.8125,0
27590,-1.125,3.3125,2,0
27610,-1.375,3.1875,1.625,0
27630,-2.625,3.75,0.9375,0
27650,-4.5,3.8125,-0.125,0
27670,-3.8125,3.6875,-0.5,0
27690,-4.0625,2.6875,-0.8125,0
27710,-3.4375,1.625,-2.1875,0
27730,-2.25,1.875,-2.0625,0
27750,-1.625,0.5,-1.9375,0
27770,-0.5,-0.5,-1.6875,0
27790,-0.75,0.1875,-0.8125,0
27810,-0.625,-0.1875,-0.375,0
27830,-0.4375,-0.75,-0.25,0
27850,-1,-1.125,-0.5,0
27870,-1.125,-1.0625,-0.375,0
27890,-1,-0.0625,-0.125,0
27910,-0.8125,0.6875,0.0625,0
27930,-1.6875,0.625,-0.125,0
27950,-2.875,0.5,-0.3125,0
27970,-2.25,0.875,-0.625,0
27990,-2.0625,2,-1.375,0
28010,-1.4375,2.6875,-1.875,0
28030,-2.3125,2.75,-1.625,0
28050,-1.5625,2,-1.1875,0
28070,-1.0625,2.4375,-1.1875,0
28090,-1.6875,2.875,-2.125,0
28110,-1.375,2.375,-2.1875,0
28130,-0.25,2.4375,-2.1875,0
28150,-0.125,1.6875,-2.75,0
28170,-0.4375,1.9375,-3.5,0
28190,-2.4375,1.9375,-4.0625,0
28210,-2.5,0.875,-4,0
28230,0.25,-1.5,-4.0625,0
28250,1.6875,-2.5,-3.5625,0
28270,0.5625,-3.375,-3.875,0
28290,-0.3125,-4,-3.5625,0
28310,1.75,-6.0625,-2.9375,0
28330,3.375,-6.625,-2,0
28350,3.4375,-7,-1.375,0
28370,3.0625,-6.1875,-0.6875,0
28390,1.6875,-5.5625,0.0625,0
28410,2.875,-5.8125,1.1875,0
28430,4.0625,-5.0625,2.6875,0
28450,4.1875,-4.1875,3.5625,0
28470,3.6875,-4,3.3125,0
28490,1.4375,-3.6875,3.5,0
28510,1.1875,-3,3.8125,0
28530,1.4375,-2.625,4.6875,0
28550,1.75,-3.0625,5.875,0
28570,1.625,-2.25,5.875,0
28590,-0.25,-0.4375,6.6875,0
28610,0.0625,0.5625,6.875,0
28630,-0.1875,1.3125,6.75,0
28650,-1.75,2.4375,6.4375,0
28670,-1.6875,3.625,4.5,0
28690,-2.5,6.125,3.5,0
28710,-4,7.8125,2.8125,0
28730,-4.9375,7.125,1.125,0
28750,-4.875,6.875,-0.0625,0
28770,-4.75,7.625,-0.625,0
28790,-6.5625,7.125,-2.8125,0
28810,-8.25,7.25,-5.6875,0
28830,-11.5,6.3125,-9.875,0
28850,-12,3.125,-12.5625,0
28870,-7.75,-0.875,-14.5,0
28890,-5.3125,-5.0625,-16,0
28910,-3.9375,-9.5625,-15.5,0
28930,0,-14,-14.6875,0
28950,2.9375,-17.75,-12.5625,0
28970,6.25,-20.5,-10.625,0
28990,8.625,-21.125,-8.0625,0
29010,9.0625,-20.0625,-6.125,0
29030,7.625,-19.0625,-5.6875,0
29050,5.9375,-17.25,-5.6875,0
29070,4.0625,-14.8125,-4.5625,0
29090,3.125,-12.25,-3.5,0
29110,3.3125,-10.4375,-3.5,0
29130,1.875,-7.6875,-2.9375,0
29150,0.75,-4.9375,-2.6875,0
29170,-0.4375,-3.6875,-2.5625,0
29190,-0.0625,-1.8125,-2,0
29210,0,-0.25,-1.5625,0
29230,0,-0.25,-1.6875,0
29250,-0.5625,0.1875,-1.5625,0
29270,-1.0625,0.875,-0.625,0
29290,-1.375,2,0.4375,0
29310,-1.1875,2.125,0.625,0
29330,-1.6875,2.6875,0.875,0
29350,-1.0625,3.4375,2.1875,0
29370,-1.75,5.3125,3.25,0
29390,-2,6.4375,4.75,0
29410,-1.25,8.0625,6.8125,0
29430,-0.3125,9.4375,8.6875,0
29450,0.125,11.75,10.3125,0
29470,-0.875,14.25,12.375,0
29490,0.625,15.1875,14.6875,0
29510,2.5,15.5625,16.5,0
29530,4.6875,16.625,18,0
29550,5.0625,17.8125,20.1875,0
29570,4.9375,16.1875,19.6875,0
29590,4.125,13.5,18.25,0
29610,4.5,11.6875,15.9375,0
29630,3.8125,11.125,13.6875,0
29650,2.125,8.5625,11.8125,0
29670,-0.375,5.125,8.125,0
29690,-3.75,3.625,4.3125,0
29710,-7.375,2.5625,1.1875,0
29730,-8.6875,0.4375,-1.375,0
29750,-6.4375,-0.6875,-1.625,0
29770,-6.8125,-0.375,-2.6875,0
29790,-8.875,1.4375,-3.1875,0
29810,-8.5,0.875,-3.25,0
29830,-4.625,0,-2.3125,0
29850,-1.125,0.5,-0.375,0
29870,0.5,1.4375,1.25,0
29890,0.4375,1.4375,1,0
29910,0.9375,0.8125,0.25,0
29930,0.6875,0.625,-0.0625,0
29950,0.8125,2.25,-0.8125,0
29970,2.75,2.3125,-0.4375,0
29990,2.3125,1.1875,0.375,0
30010,-0.125,-0.5,-1.0625,0
30030,-1.0625,-1.625,-1.5625,0
30050,-0.9375,-1.875,-0.75,0
30070,0.3125,-0.5625,0.5625,0
30090,-0.25,-0.4375,1,0
30110,0.0625,-1.0625,0.25,0
30130,0.0625,-0.125,0.125,0
30150,-0.1875,0.4375,0.8125,0
30170,-0.0625,2.0625,0.6875,0
30190,-1.4375,4.25,1.125,0
30210,-2.75,4.625,0.625,0
30230,1.625,3.375,0.75,0
30250,1.125,3.125,2.8125,0
30270,3.1875,4.8125,2.1875,2000
30290,3.25,1.875,1.0625,0
30310,0.75,2.1875,0.75,0
30330,-0.5625,4.125,0.5,0
30350,-1.875,5.4375,0.25,0
30370,0.6875,3.25,-1.125,0
30390,1.25,1.1875,-0.6875,0
30410,2.625,0.375,0.1875,0
30430,2.375,-1.3125,0.0625,0
30450,1.125,-3,-1.1875,0
30470,1,-2.5625,-1.5,0
30490,-0.6875,-0.8125,-0.625,0
30510,-0.3125,1.375,0.625,0
30530,-2,0.4375,0.625,0
30550,-0.625,-3.125,-1.375,0
30570,-0.1875,-3.5,-1.9375,0
30590,-0.3125,-2.25,-1.0625,0
30610,0.375,-0.9375,0.5625,0
30630,0.0625,-1.5,0.3125,0
30650,0,-2.0625,0.0625,0
30670,1.0625,-1.4375,0.8125,0
30680,1.0625,-1.375,1.125,0
30700,0.0625,0.1875,0.8125,0
30720,-0.8125,0.75,-0.1875,0
30740,-0.125,1.5,0.125,0
30760,0.4375,1.875,0,0
30780,0.75,2.125,0.5,0
30800,-0.25,3.625,0.6875,0
30820,-1.9375,5.125,1.0625,0
30840,-1.875,5.875,2,0
30860,-1.625,5.6875,2.875,0
30880,-0.5625,6.1875,3.4375,0
30900,-1.5625,7.6875,3.9375,0
30920,-2.6875,8.625,4.625,0
30940,-3.25,7.8125,5.25,0
30960,-3.8125,6.8125,5.75,0
30980,-4.3125,7.5,4.875,0
31000,-5.375,7.6875,3.4375,0
31020,-5.4375,8.875,2.125,0
31040,-5.3125,9.4375,0.625,0
31060,-3.8125,9.4375,-0.75,0
31080,-2.8125,9.25,-2.0625,0
31100,-3.0625,11,-3.25,0
31120,-2.125,11.8125,-4.0625,0
31140,-1.25,11.875,-5.25,0
31160,-0.75,11.9375,-6.9375,0
31180,-0.0625,11.125,-8.1875,0
31200,-0.125,10.375,-9.25,0
31220,-1.5,11.4375,-10.125,0
31240,-1.6875,11,-10.125,0
31260,-1.375,10.1875,-9.9375,0
31280,-0.25,9.4375,-8.75,0
31300,0.125,8.375,-9.0625,0
31320,1.6875,7.375,-8.375,0
31340,0.75,6.6875,-8.1875,0
31360,1.0625,6.4375,-7.1875,0
31380,0.25,6.5,-7.25,0
31400,-2.25,6,-7.25,0
31420,-2.3125,6.5,-6.8125,0
31440,-0.375,5.625,-4.5,0
31460,1.3125,4.6875,-4.6875,0
31480,2.5625,3.875,-5.4375,0
31500,2.25,5,-6.4375,0
31520,2.4375,5,-5.5625,0
31540,2.8125,4.25,-6.625,0
31560,4.75,2,-8.25,0
31580,6,0.8125,-9.1875,0
31600,6.1875,2.4375,-8.125,0
31620,8.1875,1.625,-5.75,0
31640,8.9375,-0.875,-5.5625,0
31660,9.4375,-0.6875,-7.0625,0
31680,9.0625,-0.375,-7.5,0
31700,10.0625,-0.3125,-8.5,0
31720,11.125,-0.8125,-10,0
31740,7.75,-0.1875,-11.75,0
31760,5.8125,0.0625,-13.1875,0
31780,8,-0.8125,-14.4375,0
31800,10.1875,-1.5,-14.75,0
31820,9.75,-2.125,-14.875,0
31840,8.75,-2,-15.5,0
31860,9.375,-3,-14.9375,0
31880,9.8125,-5.5625,-14.375,0
31900,9.6875,-7.25,-14.8125,0
31920,8.125,-7.75,-15.6875,0
31940,9.125,-6.625,-15.1875,0
31960,9.3125,-7.1875,-14.375,0
31980,8.1875,-8,-14.9375,0
32000,7.3125,-9.5625,-15.875,0
32020,8.375,-11.0625,-15.3125,0
32040,9.5,-11.9375,-15.5625,0
32060,8.125,-11.3125,-15.875,0
32080,7,-11.9375,-17,0
32100,7.1875,-13.5,-18,0
32120,9.875,-15.625,-18.3125,0
32140,10.75,-17.25,-18.6875,0
32160,8.625,-17.6875,-20.5,0
32180,6.8125,-17.125,-21.8125,0
32200,7.5,-17.6875,-23.5,0
32220,8.5,-19.375,-24.9375,0
32240,8.75,-20.5625,-25.375,0
32260,8.125,-21.5,-25.8125,0
32280,8.125,-21.5,-25.75,0
32300,9.125,-23.3125,-25.125,0
32320,10.8125,-25.75,-24.5625,0
32340,11.125,-26.5625,-23.25,0
32360,11.3125,-28,-22.5,0
32380,12.5,-29.3125,-22,0
32400,12.75,-29.0625,-20.625,0
32420,13.625,-30.375,-19.375,0
32440,13.625,-30.625,-18.625,0
32460,13.625,-30.4375,-17,0
32480,13.75,-31.625,-16.5625,0
32500,14.25,-32.875,-15.375,0
32520,13.5,-33.75,-15,0
32540,13.0625,-34.5625,-14.5625,0
32560,12.6875,-34.3125,-14,0
32580,10.8125,-34.0625,-14.0625,0
32600,10.5,-34.375,-13.625,0
32620,10.625,-33.25,-13.375,0
32640,10.75,-33,-12.625,0
32660,11.1875,-31.1875,-12.125,0
32670,9.125,-30.0625,-11.125,0
32690,6.625,-29.8125,-11.375,0
32710,7.6875,-29.6875,-12.8125,0
32730,8.625,-28,-12,0
32750,7.125,-26.5,-10.4375,0
32770,5.0625,-25.5,-8.375,0
32790,5.4375,-25.4375,-7.25,0
32810,5.4375,-24.9375,-6.3125,0
32830,5.5,-22.8125,-6.5625,0
32850,5.5,-21.25,-5.8125,0
32870,7.5,-22.9375,-4.3125,0
32890,7.9375,-25.0625,-3.125,0
32910,7.5,-24.4375,-1.5625,0
32930,4.5625,-20.4375,-1,0
32950,2.8125,-16.0625,-0.1875,0
32970,3.9375,-16.125,1.25,0
32990,5.9375,-17.875,2.25,0
33010,5.875,-15.9375,4.6875,0
33030,5.625,-14.75,4.0625,0
33050,4.125,-11.625,5.375,0
33070,0.25,-7.75,5.9375,0
33090,0.1875,-8.6875,5.125,0
33110,2.9375,-10.875,6.25,0
33130,3.625,-10.4375,8.8125,0
33150,0.6875,-7.9375,7.25,0
33170,-0.375,-5.1875,5.3125,0
33190,-1.0625,-2.8125,5.4375,0
33210,1.625,-2.875,6.875,0
33230,1,-1.9375,9.75,0
33250,-1.875,-1.4375,9.375,0
33270,-1.3125,2.0625,9.0625,0
33290,-1.875,5.4375,7.9375,0
33310,-2.0625,6.125,7.75,0
33330,-2,5.8125,7.875,0
33350,-1.875,5.75,8.25,0
33370,-2.1875,7.5625,7.875,0
33390,-3.125,10.9375,7.125,0
33410,-4.875,13.3125,8.125,0
33430,-4.5625,11.875,8.9375,0
33450,-0.75,13.5,10.375,0
33470,0.3125,16.0625,12.4375,0
33490,-4,16.75,11.875,0
33510,-5.4375,15.9375,10.875,0
33530,-2.6875,16.0625,12.8125,0
33550,-3.8125,16.5625,14.125,0
33570,-4.6875,18.1875,14.375,0
33590,-7.9375,18.3125,12.125,0
33610,-4.8125,18.5,12.25,0
33630,-4.25,19.3125,14.1875,0
33650,-3.25,18.75,13.625,0
33670,-5.875,20.875,13.375,0
33690,-7.8125,20.5,13.4375,0
33710,-7.0625,20.5625,13.375,0
33730,-4.75,19.4375,13,0
33750,-4.375,20.0625,12.5,0
33770,-6.1875,19.5,13.5625,0
33790,-6.5625,19.3125,14.1875,0
33810,-6.1875,18.625,16.125,0
33840,-5.875,17.25,15.625,0
33860,-8.3125,17.4375,13.5625,0
33880,-8.5625,18,13.3125,0
33900,-8.1875,17.625,14.3125,0
33920,-7,18.125,13.75,0
33940,-8.0625,19,12.5625,0
33960,-8.5,21.1875,12.125,0
33980,-8.3125,21.25,12.5625,0
34000,-7.5,20.8125,13,0
34020,-5.25,20.8125,12.375,0
34040,-4.9375,22.6875,12.8125,0
34060,-6.875,24.375,13.25,0
34080,-8.25,24.5625,12.75,0
34100,-3.75,25.1875,13.4375,0
34120,-1.875,27.5,14.125,0
34140,-2.9375,28.75,13.75,0
34160,-2.75,29.6875,13.25,0
34180,-1.75,30.5,13.875,0
34200,0.1875,30.9375,13.0625,0
34220,0.5625,31,11.625,0
34240,-1.75,31.8125,11.25,0
34260,-1.25,33.1875,10.4375,0
34280,1,34.0625,11.125,0
34300,3,34.375,12.5,0
34320,4.1875,34.375,11.375,0
34340,2.875,34.5625,10.5,0
34360,4.25,34.8125,11.125,0
34380,4.75,34.25,11.4375,0
34400,7.5625,34.0625,10.9375,0
34420,6.8125,34.1875,10.125,0
34440,6,33.3125,8.6875,0
34460,8.5625,31.5,7.8125,0
34480,7.5625,31.5,7.875,0
34500,4.375,30.875,6.0625,0
34520,3.9375,29.125,4.1875,0
34540,3.125,28.1875,3.875,0
34560,0.0625,29.625,3,0
34580,-1.9375,28.75,0.5,0
34600,0.625,27.1875,-0.4375,0
34620,1.5,27.3125,0.625,0
34640,-0.9375,28.3125,-0.8125,0
34660,-3.5,26.125,-3.875,0
34680,-0.125,24,-4.875,0
34700,-1.8125,24.75,-4.5625,0
34720,-5.4375,24.4375,-6.3125,0
34740,-7.5625,22,-10.25,0
34760,-8.1875,22.1875,-11.8125,0
34780,-8.25,24.8125,-9.625,0
34800,-7.375,24.8125,-10.5,0
34820,-6.0625,23.5,-11.8125,0
34840,-4.25,23.5,-11.1875,0
34860,-2.5625,22.125,-12.625,0
34880,-2.1875,20.0625,-12.1875,0
34900,-1.9375,18.8125,-13,0
34920,0.625,17.4375,-12.4375,0
34940,0.125,16.4375,-12.75,0
34960,1.9375,13.8125,-15.8125,0
34980,3.125,14.625,-15.9375,0
35000,2.5625,14.1875,-16.5625,0
35020,1.0625,12.875,-18.875,0
35040,1.75,9.1875,-20.5625,0
35060,5,7.5,-22.8125,0
35080,2.25,7.25,-24.0625,0
35100,2.125,7.75,-24.5,0
35120,2.9375,4.5625,-24.875,0
35140,5.6875,1.3125,-26.625,0
35160,5.5625,1,-25.5625,0
35180,3.8125,0.875,-23.625,0
35200,6.4375,-2.3125,-22.6875,0
35220,8.1875,-5.875,-21.375,0
35240,7.8125,-7.125,-21.375,0
35260,9.0625,-8.5,-19.875,0
35280,10.4375,-11.375,-18.9375,0
35300,10,-14.125,-19.375,0
35320,8.75,-16.375,-20.875,0
35340,9.75,-16.375,-22.5625,0
35360,12.5625,-15.125,-22.4375,0
35380,13.125,-14.9375,-24.1875,0
35400,15.0625,-14.75,-25.4375,0
35420,15.1875,-14.25,-24,0
35440,17.0625,-14.8125,-22.625,0
35460,17.3125,-16.4375,-22.5,0
35480,18.0625,-17.5,-22.5,0
35500,21.25,-18.9375,-21.375,0
35520,22.875,-20.375,-21.25,0
35540,20.125,-22.125,-21.9375,0
35560,17.8125,-23.125,-22.4375,0
35580,19,-25.25,-22.3125,0
35600,22.875,-28.875,-21.1875,0
35620,22.5625,-30.3125,-20.3125,0
35640,20.5625,-30.75,-20.0625,0
35660,19.9375,-31,-19.5625,0
35680,19.75,-32.625,-19.3125,0
35700,20.875,-35.375,-19.3125,0
35720,21.3125,-36.25,-19,0
35740,20.1875,-36.4375,-18.1875,0
35760,20.375,-37.375,-17.8125,0
35780,19.625,-38.875,-18.125,0
35800,18.25,-39.5625,-17.375,0
35820,18.5,-40.8125,-16.375,0
35840,17.75,-42,-13.5,0
35860,17.0625,-41.9375,-12.125,0
35880,17.375,-39.875,-10.125,0
35900,17.375,-37.625,-7.625,0
35920,19.375,-38.5625,-3.5625,0
35940,21.3125,-41.3125,1.3125,0
35960,18.5625,-42.9375,2.375,0
35980,16,-40.9375,1.5,0
36000,13.8125,-38.375,0.125,0
36020,12.375,-37.5625,-1.9375,0
36040,12.875,-35.9375,-1.9375,0
36060,11.8125,-34.5625,-2.6875,0
36080,11.6875,-32.0625,-5.25,0
36100,9.875,-27.375,-6.5625,0
36110,8.4375,-24.3125,-8,0
36130,9.625,-23.9375,-7.5,0
36150,9.8125,-22.8125,-6.3125,0
36170,7.125,-20.4375,-5,0
36190,3.5,-17.6875,-4.25,0
36210,4.625,-15.8125,-2.8125,0
36230,7.375,-15.8125,-1,0
36250,11.6875,-16.375,4.0625,0
36270,10.0625,-15.0625,6.0625,0
36290,5.875,-11.6875,6,0
36310,2.0625,-8,4.5,0
36330,2.8125,-7.875,5.3125,0
36350,6.625,-9,8.5,0
36370,8.5,-6.5625,11.375,0
36390,5.125,-2.125,11.375,0
36410,-0.5625,0.5,10.25,0
36430,-1.5625,-0.75,11.5625,0
36450,1.375,1.125,16.4375,0
36470,-0.25,5.0625,19.4375,0
36490,-0.6875,6.5,19.1875,0
36510,-1.125,7.6875,22.9375,0
36530,3.8125,9.9375,29.75,0
36550,4.5625,11.9375,30.9375,0
36570,3.1875,14.5,31.375,0
36590,1.375,15.125,31.9375,0
36610,3.4375,14.875,30,0
36630,5.1875,15.75,28.4375,0
36650,2.875,16.9375,26.25,0
36670,0.4375,17.3125,25.375,0
36690,0.625,18.75,24.625,0
36710,-0.625,20.5625,24,0
36730,-2.9375,19.6875,21.5,0
36750,-3,18.75,20.0625,0
36770,0.375,18.5,21.0625,0
36790,1.25,19.0625,20.0625,0
36810,-4.5625,19.5,16.875,0
36830,-7.125,20.3125,16.25,0
36850,-3.9375,18.4375,16,0
36870,-4.0625,19.3125,18.3125,0
36890,-4.5,21.3125,20.75,0
36910,-8.1875,21.6875,19.9375,0
36930,-9.8125,22.4375,21.25,0
36950,-6.3125,22.5,22.25,0
36970,-5.25,22.625,22.0625,0
36990,-7.8125,24.75,21.4375,0
37010,-10.375,24.5,20.125,0
37030,-10.6875,25.25,18.875,0
37050,-11,26,18.875,0
37070,-10.5,25.5,17.75,0
37090,-10.625,25.9375,16.6875,0
37110,-12.3125,28.5625,16.25,0
37130,-11.0625,28.625,15,0
37150,-7.875,28.6875,14.4375,0
37170,-6.25,29.1875,14,0
37190,-4.625,29.9375,13.75,0
37210,-2.9375,30.9375,14.375,0
37230,-2.6875,30.0625,14.8125,0
37250,-5.9375,28.6875,13.875,0
37270,-7.0625,29.625,13.6875,0
37290,-5.375,28.75,10.9375,0
37310,-6.625,28.5,7.5,0
37330,-8.6875,30.25,6.1875,0
37350,-8.3125,30.3125,2.9375,0
37370,-7.625,30.3125,0.3125,0
37390,-9.8125,32.6875,-1.5,0
37410,-8.4375,34.625,-3.375,0
37430,-6.625,34.375,-4.125,0
37450,-3.6875,34.5625,-4.125,0
37470,-2.375,35,-4.625,0
37490,-3.0625,35.75,-5.1875,0
37510,-4,35.1875,-7.125,0
37530,-4.4375,34,-8.8125,0
37550,-2.6875,33.4375,-9.8125,0
37570,-1.125,32.1875,-11.125,0
37590,-5.1875,31.875,-12.8125,0
37610,-8.4375,30.875,-15.0625,0
37630,-8.0625,29.75,-15.3125,0
37650,-6.4375,26.4375,-17.6875,0
37670,-8.25,25.5,-19.25,0
37690,-7.3125,26.4375,-20.3125,0
37710,-7.1875,24.3125,-22.8125,0
37730,-9.9375,21.6875,-25.5625,0
37750,-14.3125,22.6875,-24.75,0
37770,-11.1875,21.8125,-25.25,0
37790,-8.4375,20.3125,-27.5,0
37810,-11.0625,20.625,-26.3125,0
37830,-13.8125,22,-26.0625,0
37850,-11.8125,20.3125,-27.0625,0
37870,-10.3125,19.1875,-27.8125,0
37890,-13.1875,19.9375,-28,0
37910,-14.25,18.8125,-26.75,0
37930,-12.875,18.4375,-24.3125,0
37950,-12,16.75,-26.8125,0
37970,-5.6875,12.5625,-26.875,0
37990,-6.6875,11.5,-26.9375,0
38010,-6.0625,10.5,-26.4375,0
38030,-4.6875,9.375,-29.1875,0
38050,-1.375,5.75,-29.9375,0
38070,-0.25,4.625,-30,0
38090,2.5,3.125,-30.1875,0
38110,4.8125,0.3125,-26.75,0
38120,4.9375,-5.5,-26.875,0
38140,6.9375,-5.875,-25.25,0
38160,8.875,-6.3125,-21.5,0
38180,11.5,-9.4375,-19.125,0
38200,13.9375,-12.5,-20.375,0
38220,14.1875,-11.1875,-20.625,0
38240,16.75,-11.8125,-20.1875,0
38260,18.75,-15.3125,-20.875,0
38280,18.875,-16.125,-22.9375,0
38300,18.625,-15.9375,-25.5625,0
38320,20.125,-17.5625,-25.125,0
38340,21.3125,-20,-27.1875,0
38360,21.9375,-19.25,-27.8125,0
38380,22.875,-17.6875,-27.3125,0
38400,25.25,-19.9375,-26,0
38420,24.6875,-22.625,-27.5625,0
38440,23.1875,-21.5625,-27.75,0
38460,24.25,-20.3125,-26.4375,0
38480,24.125,-20.0625,-26.1875,0
38500,24.0625,-20,-26.1875,0
38520,23.5625,-21.125,-26.125,0
38540,25.4375,-23.625,-23.875,0
38560,24.8125,-24.9375,-22.875,0
38580,21.5625,-24.75,-24.0625,0
38600,19.875,-25.5625,-23.875,0
38620,21.3125,-28.125,-21.125,0
38640,22.6875,-31.5,-17.9375,0
38660,21.75,-32.4375,-17.0625,0
38680,17.625,-30.9375,-17.375,0
38700,17.5,-31.875,-16.625,0
38720,17.6875,-34.25,-15.5625,0
38740,18.125,-36.125,-14.5625,0
38760,19.125,-35.9375,-12.1875,0
38780,16.6875,-36.4375,-11.3125,0
38800,15.5625,-37.75,-11.1875,0
38820,16.6875,-37.5625,-9.5625,0
38840,18.625,-36.5625,-5,0
38860,16.875,-37.0625,-1.9375,0
38880,15.8125,-37.875,0.1875,0
38900,14.5625,-36.8125,2.9375,0
38920,13.875,-34.9375,3.4375,0
38940,13.5625,-35.4375,4.6875,0
38960,14.1875,-34.4375,7.25,0
38980,14.9375,-31.4375,9.5,0
39000,14.9375,-29.5625,12.4375,0
39020,13.6875,-29.625,14.5625,0
39040,12.8125,-26.625,16.25,0
39060,11.6875,-24.125,17.0625,0
39080,12.4375,-21.75,16.625,0
39100,8.8125,-20.3125,17.9375,0
39120,6.6875,-19.5,19,0
39140,5.5625,-17.4375,20.875,0
39160,4.1875,-17.625,23.25,0
39180,6.9375,-15.5,24.3125,0
39200,5.625,-15.4375,25.375,0
39220,3.25,-12.875,28.25,0
39240,1.25,-11.75,25.8125,0
39260,3.625,-10.625,23.625,0
39280,4.5,-9.125,24.0625,0
39300,6.4375,-9.5625,24.4375,0
39320,4.25,-8.5625,25.4375,0
39340,3.0625,-7.75,25.75,0
39360,0.4375,-6.8125,23.6875,0
39380,1.0625,-6.125,22.75,0
39400,1.625,-5.6875,24.625,0
39420,-1.25,-3.8125,24.8125,0
39440,-3.1875,-0.75,23.1875,0
39460,-3.5625,0.375,22.75,0
39480,0.5,0.875,24.25,0
39500,-2,3.75,25.0625,0
39520,-4.8125,7.9375,24.1875,0
39540,-5.25,10.25,22.6875,0
39560,-4.25,10.9375,24.125,0
39580,-1.375,14.3125,24.6875,0
39600,0.25,17.5,24,0
39620,-1.8125,17.6875,22.75,0
39640,-1.0625,17.4375,23.0625,0
39660,5.25,17.6875,24.5625,0
39680,4.75,18.9375,24.9375,0
39700,-1.875,18.6875,22.6875,0
39720,-1.25,17.5,19.875,0
39740,2,16.875,19.875,0
39760,4.3125,18.0625,21.25,0
39780,-2.5625,19.4375,19.0625,0
39800,-5.875,18.625,17.625,0
39820,-1.5,18.8125,16.3125,0
39840,1,20,15.75,0
39860,0.625,21.5,15.1875,0
39880,-2,21.8125,12.8125,0
39900,-3.9375,22.6875,11.8125,0
39920,-1.625,23.0625,12.5,0
39940,-2,24.3125,12.875,0
39960,-2.9375,24.5625,10.375,0
39980,-3.5,24.9375,10,0
40000,-1.625,25.9375,9.75,0
40020,-0.8125,27.25,9.375,0
40040,1.875,28.125,9.3125,0
40060,2.9375,29.125,10.0625,0
40080,5.9375,30.875,10.6875,0
40100,9.75,30.8125,10.875,0
40120,11.1875,29.9375,11.5,0
40140,9.375,30.3125,10.0625,0
40160,4.8125,30.125,7.5625,0
40180,4.75,30.5625,4.1875,0
40200,5.25,31.75,0.8125,0
40220,1.75,31.6875,-2.3125,0
40240,0.5,31.5625,-5.9375,0
40260,0.875,33.4375,-8.5625,0
40280,-0.1875,34.9375,-10.875,0
40300,-2.0625,36,-14.125,0
40320,-3.5,35.75,-13.4375,0
40340,-1.25,36.3125,-12,0
40360,0.5625,35.4375,-14.75,0
40380,0.75,35.4375,-16.375,0
40400,-0.5,35.75,-16.5,0
40420,-2.375,35.125,-16,0
40440,-2.6875,32.875,-15.4375,0
40460,-2.625,31.25,-17.625,0
40480,-1.8125,30.0625,-20.1875,0
40500,-4.5625,29.125,-20.625,0
40520,-6.1875,27.9375,-19.375,0
40540,-5.875,25.9375,-20.6875,0
40560,-7.375,25.5625,-24.4375,0
40580,-10.625,25.1875,-26.1875,0
40600,-11.125,22.625,-27.1875,0
40620,-9.1875,22.1875,-27.375,0
40640,-8.9375,22,-27.4375,0
40660,-10.4375,19.5625,-28.4375,0
40680,-11.0625,18.625,-29.3125,0
40700,-11,18,-30.625,0
40720,-11.5,17.5,-30.875,0
40740,-13.375,16.4375,-28.6875,0
40760,-12.0625,14.8125,-27.875,0
40780,-11.125,12.9375,-27.0625,0
40800,-12.8125,11.25,-25.625,0
40820,-12.8125,10.9375,-25.9375,0
40840,-15.0625,9,-26.9375,0
40860,-16.125,7.75,-27.9375,0
40880,-8.125,6.625,-26.6875,0
40900,-4.4375,6.3125,-24.4375,0
40920,-7.5,5.1875,-21.375,0
40940,-10.875,5.5,-23.625,0
40960,-11.0625,7.1875,-25.875,0
40980,-8.0625,6.75,-28.1875,0
41000,-5.5625,6.0625,-28.4375,0
41020,-3.5625,6.5625,-27.25,0
41040,-3.875,8.1875,-26.25,0
41060,-3.625,9.3125,-26.875,2001
41080,-1.4375,9.875,-26.3125,0
41100,-0.0625,9.0625,-23.0625,0
41120,0.6875,7.4375,-17.625,0
41140,1.1875,6.4375,-14.4375,0
41160,0.0625,6.375,-13.0625,0
41180,1.3125,4.875,-12.5625,0
41200,2.3125,2.75,-11.1875,0
41220,2.5625,2.375,-6.375,0
41240,3.6875,0.3125,-1.8125,0
41260,3.25,-2.3125,0.4375,0
41280,1.9375,-4.1875,1.6875,0
41300,4.375,-6.875,3.9375,0
41320,5.125,-8.25,7.0625,0
41340,4.125,-8.6875,8.625,0
41360,1.625,-7.5,7.0625,0
41380,0.625,-7.375,5.375,0
41400,0.1875,-7.25,4.5625,0
41420,-0.125,-6.4375,5.5625,0
41440,-3.6875,-3.5,5.9375,0
41460,-6.125,-2.0625,6.3125,0
41480,-6.25,-0.8125,8.8125,0
41500,-5.9375,-0.8125,11.4375,0
41520,-7.3125,-0.75,12.3125,0
41540,-9.0625,-1.125,13.6875,0
41550,-7.875,-2.6875,16.3125,0
41570,-7.8125,-3.375,23,0
41590,-5.75,-3.0625,30.1875,0
41610,-6.4375,-5.1875,36.0625,0
41630,-11.375,-8.9375,40.0625,0
41650,-13.375,-13.5,45.125,0
41670,-13.625,-15.25,55.0625,0
41690,-11.625,-17.375,65.3125,0
41710,-12.375,-22.5,71.875,0
41730,-16.875,-26.0625,75.5,0
41750,-13.3125,-28.0625,79.5,0
41770,-13.4375,-31,81.75,0
41790,-17.9375,-33.5625,83.6875,0
41810,-20.0625,-32.125,85.625,0
41830,-23.1875,-28.9375,87.5625,0
41850,-26.6875,-28.875,87.6875,0
41870,-26.125,-31.75,89.125,0
41890,-24.3125,-34.25,89.8125,0
41910,-23.75,-34.375,87.6875,0
41930,-23.5625,-32.1875,81.4375,0
41950,-24.625,-29.375,76.9375,0
41970,-24.3125,-27.75,72,0
41990,-23.625,-24.125,66.875,0
42010,-22.8125,-19,59.25,0
42030,-20.125,-16.1875,50.8125,0
42050,-18.875,-12.9375,43.625,0
42070,-17.625,-7.1875,40.125,0
42090,-13.75,-1.0625,35.25,0
42110,-8.4375,2.4375,29.875,0
42130,-6.6875,2.6875,24.875,0
42150,-3.5625,2.625,19.9375,0
42170,-1.25,5.875,15.5625,0
42190,-1.625,9.625,9.9375,0
42210,-7.5,12.25,4.8125,0
42230,-5.6875,10.3125,0.625,0
42250,-3.125,9.5625,0.25,0
42270,0.5,9.1875,1.3125,0
42290,0.4375,8.6875,2,0
42310,0.4375,6.75,2.8125,0
42330,1.75,4.4375,4.375,0
42350,1.5625,2.5625,3.375,0
42370,0.6875,1.0625,1.0625,0
42390,-1.5,0.6875,0.4375,0
42410,-1.875,-0.3125,0.75,0
42430,1.0625,0.875,2.1875,0
42450,1.9375,0.8125,2.5,0
42470,4,-2.3125,0.75,0
42490,4.125,-2,0.25,0
42510,5.25,-1.75,2.375,0
42530,4.625,0.8125,3.25,0
42550,2.75,1.625,3.125,2000
42570,-0.625,3.125,0.4375,0
42590,-1,1.5625,-4.25,0
42610,-3.4375,-0.375,-7.0625,0
42630,-2.5625,0.5625,-6.4375,0
42650,-2.9375,1.1875,-5,0
42670,-2.3125,1.8125,-2.4375,0
42690,-2.5625,2.5,-1.5,0
42710,-2.1875,2,-0.875,0
42730,-1.375,0.6875,0,0
42750,-2.125,-0.4375,-0.0625,0
42770,0.25,-0.8125,-0.375,0
42790,-0.6875,-0.6875,0.5,0
42810,-2.3125,-0.1875,0.3125,0
42830,-3.0625,-0.125,0.75,0
42850,-2.3125,-0.6875,0.6875,0
42870,-3.0625,0.6875,1.5,0
42890,-3.5625,1.375,1.0625,0
42910,-3.625,2.6875,1.625,0
42930,-3.125,3.6875,2.125,0
42950,-2.125,4.75,1.4375,0
42970,-3.125,6.125,0.1875,0
42990,-4.4375,8.25,-1.6875,0
43010,-5.5625,9.5625,-2.4375,0
43030,-4.3125,8.6875,-2.8125,0
43050,-3.5,9.625,-3.0625,0
43070,-4.125,12.6875,-4.25,0
43090,-4.125,12.5625,-7.375,0
43110,-5.4375,14.0625,-8.625,0
43130,-6.0625,14.375,-8.1875,0
43150,-2.3125,12.5625,-7.4375,0
43170,-1.125,11.625,-6.75,0
43190,-1.8125,14,-6.6875,0
43210,-4.5625,16.375,-9,0
43230,-2.625,13.1875,-9,0
43250,-1.1875,12.3125,-9.1875,0
43270,-0.4375,13.1875,-8.9375,0
43290,-1.3125,12.25,-9.6875,0
43310,-0.875,11.5625,-10.3125,0
43330,-0.125,11.25,-12.0625,0
43350,0.75,11.25,-12.125,0
43370,0.0625,11.125,-11.875,0
43390,-0.6875,10.5,-12.75,0
43410,-1.1875,9.5,-12.5625,0
43430,-1.875,9.25,-13,0
43450,-0.9375,8,-13.8125,0
43470,0.125,6.375,-15.6875,0
43490,-1.125,6.375,-16.4375,0
43510,-1.375,6.5625,-16.875,0
43530,-1.8125,4.125,-19.1875,0
43540,-1.125,2.0625,-20.4375,0
43560,0.375,-1.9375,-21.1875,0
43580,1,-6,-22.8125,0
43600,0.875,-4.5625,-23.125,0
43620,-1,-4.625,-22.125,0
43640,-0.5625,-7.4375,-21.4375,0
43660,2.6875,-11.5625,-19.9375,0
43680,5.875,-15.3125,-18.625,0
43700,7.5625,-16.1875,-17.5625,0
43720,8.375,-17.0625,-17.25,0
43740,7.875,-15.75,-17,0
43760,6.625,-14.625,-17.6875,0
43780,8,-15.1875,-19.3125,0
43800,9.75,-17.125,-18.625,0
43820,12.0625,-20.625,-17.625,0
43840,11.3125,-20.0625,-17.6875,0
43860,8.0625,-17.625,-19,0
43880,6.5625,-19.6875,-20.5625,0
43900,10.5625,-23.8125,-19.0625,0
43920,13.5625,-26.1875,-18,0
43940,12.8125,-26.125,-17.75,0
43960,9.75,-26.5,-19.1875,0
43980,11.25,-28.0625,-20,0
44000,14.8125,-32.3125,-19.3125,0
44020,15.125,-34.9375,-19.4375,0
44040,13.125,-35.1875,-19,0
44060,12.375,-36.5,-19.4375,0
44080,14.125,-39.6875,-21.1875,0
44100,14.25,-42.0625,-21.1875,0
44120,14.125,-43.8125,-19.6875,0
44140,13.8125,-43,-19.375,0
44160,12.625,-42.875,-21.25,0
44180,12.6875,-43.4375,-22.8125,0
44200,12.375,-42.1875,-22.25,0
44220,12.8125,-44.3125,-22.6875,0
44240,12.625,-45.875,-22.8125,0
44260,10.5625,-44.9375,-24.375,0
44280,9.6875,-42.625,-23.75,0
44300,10.75,-45.75,-23.3125,0
44320,11.125,-46.5625,-22.4375,0
44340,8.6875,-44.3125,-23.375,0
44360,8.375,-41.9375,-22.25,0
44380,9.75,-42.0625,-20.1875,0
44400,10.4375,-41.5,-18.0625,0
44420,11.125,-42.25,-15.5625,0
44440,11.0625,-39.8125,-14.6875,0
44460,11.1875,-36.25,-13.5625,0
44480,11.1875,-37.125,-12.25,0
44500,11.875,-38.375,-9.8125,0
44520,11.5625,-37.1875,-7.125,0
44540,8.8125,-31.9375,-8.3125,0
44560,7.6875,-26.125,-10.375,0
44580,7.25,-25.5,-9.4375,0
44600,10.25,-27,-5.75,0
44620,7.4375,-26.1875,-3.3125,0
44640,3.9375,-20.625,-5.25,0
44660,2.8125,-16.4375,-4.9375,0
44680,5.9375,-15.3125,-0.0625,0
44700,8.625,-15.3125,6,0
44720,7.0625,-11.125,9.625,0
44740,5.375,-5.625,9.25,0
44760,5.125,-1.1875,12.9375,0
44780,6.75,0.0625,18.0625,0
44800,9.375,-2.0625,21.375,0
44820,9,3.4375,21.4375,0
44840,2.125,10.9375,19.75,0
44860,-1.0625,12.0625,19.75,0
44880,2,6.25,21.8125,0
44900,7.375,5.25,21.75,0
44920,3.125,14,20.625,0
44940,-0.875,17.5625,18.75,0
44960,-0.5,13.0625,21.25,0
44980,5.125,11.5,24.25,0
45000,6.3125,14.3125,23.5625,0
45020,3.8125,19.3125,21.0625,0
45040,0,18.375,20.125,0
45060,0.75,16.125,22.5625,0
45080,4.75,16.5625,23.375,0
45100,3.4375,22.75,22,0
45120,-0.3125,23.875,19,0
45140,-3.0625,23.1875,18.3125,0
45160,-1.3125,23.5,19.3125,0
45180,3.0625,24.3125,18.25,0
45200,0.8125,25.1875,16.0625,0
45220,-3.5625,25.125,15.6875,0
45240,-4.125,23.875,15.3125,0
45260,-3.1875,25.4375,15.1875,0
45280,-5,26.3125,15.3125,0
45310,-4.625,23.625,12.5,0
45330,-2.8125,24.125,14.4375,0
45350,-2.9375,24.3125,14.4375,0
45370,-4.8125,25.9375,13.8125,0
45390,-5.875,25.125,15,0
45410,-4,24,14.9375,0
45430,-2.875,24.9375,15.625,0
45450,-4.3125,26.5625,14.5,0
45470,-4.625,26.75,13.625,0
45490,-5.8125,27.3125,15.3125,0
45510,-3.4375,27,15.75,0
45530,-3.25,27.4375,14.75,0
45550,-3.75,28.875,14.375,0
45570,-3.5625,28.125,13.5625,0
45590,-2.0625,28.25,13.375,0
45610,-1.1875,29.25,13,0
45630,-1,28.625,11.25,0
45650,-3.875,29.125,11.5625,0
45670,-2.5,28.625,11.9375,0
45690,0.625,27.8125,12.375,0
45710,2.1875,27.0625,12.75,0
45730,0.5625,27.625,12,0
45750,-0.8125,27.125,10.625,0
45770,0.5625,26.5625,10.6875,0
45790,0.9375,25.9375,10.4375,0
45810,-0.6875,27,9.6875,0
45830,-1.5,27.4375,8.5,0
45850,0.3125,26.4375,8.5625,0
45870,-0.3125,27.6875,8.5,0
45890,-0.5625,28,6.75,0
45910,-0.3125,28.125,5.9375,0
45930,-0.6875,28.5625,4.9375,0
45950,0.0625,28.625,3,0
45970,-1.5,28,1.1875,0
45990,-4.1875,28.5625,-0.6875,0
46010,-5.625,29.625,-1.25,0
46030,-7.5,29.75,-2.625,0
46050,-7.1875,29.5625,-4.9375,0
46070,-4.25,29.25,-5.625,0
46090,-2.5625,29.1875,-5.375,0
46110,-6.5625,29.9375,-8.3125,0
46130,-7.125,28.125,-10.0625,0
46150,-4.4375,26.125,-9.0625,0
46170,-2.5625,23.3125,-7.6875,0
46190,-1.9375,21.8125,-9.8125,0
46210,-5.4375,22.625,-12.75,0
46230,-9.1875,20.8125,-15.625,0
46250,-5.625,17.75,-17.0625,0
46270,-1.5,16.4375,-15.6875,0
46290,-3.9375,15.125,-16.1875,0
46310,-7.4375,15.25,-20.5,0
46330,-8.6875,15.875,-21.625,0
46350,-5.1875,14.5,-21.75,0
46370,-1.8125,13.75,-21.0625,0
46390,-3,13.0625,-21.9375,0
46410,-6.125,11.5625,-24.5,0
46430,-4.625,9.875,-25.6875,0
46450,-1.9375,11.8125,-26.75,0
46470,-3.25,9.75,-25.9375,0
46490,-2.8125,8.5625,-26.25,0
46520,0.875,4.0625,-24.6875,0
46540,1.25,3.75,-24,0
46560,2.375,2.1875,-26.4375,0
46580,4.5,-2.125,-26.5625,0
46600,5.0625,-8.125,-25.3125,0
46620,0.75,-9.4375,-25.5,0
46640,2.4375,-12.375,-29.125,0
46660,5.25,-15.8125,-29.625,0
46680,8.0625,-18.0625,-31.9375,0
46700,6.25,-18.1875,-35.625,0
46720,4.5,-20.875,-37.5625,0
46740,5.6875,-24.4375,-38.25,0
46760,11.5,-26.875,-35.875,0
46780,15,-29.875,-34.4375,0
46800,14.1875,-29.5625,-34.625,0
46820,13.875,-30.5,-33.875,0
46840,17.625,-34.4375,-32,0
46860,19.75,-35.5625,-30.3125,0
46880,18.9375,-35.9375,-29.5625,0
46900,16.6875,-35.5,-28.9375,0
46920,18.4375,-39.1875,-26.5,0
46940,20.25,-40.3125,-24.375,0
46950,17.875,-38.0625,-24.375,0
46970,15.875,-39.5,-24.1875,0
46990,15.5625,-41.6875,-22.6875,0
47010,17.125,-41.125,-21.25,0
47030,15.625,-40.0625,-20.9375,0
47050,16.25,-38.75,-20.125,0
47070,14.9375,-37.9375,-19.375,0
47090,15.25,-37.5,-18.4375,0
47110,16.625,-37.625,-17.375,0
47130,16.125,-38.125,-15.375,0
47150,14.5625,-38.75,-14.5625,0
47170,13.4375,-38.3125,-14.375,0
47190,13.6875,-38.5625,-13.5,0
47210,14.0625,-38.75,-11.875,0
47230,12.125,-37.5,-10.9375,0
47250,9.9375,-36.9375,-10.0625,0
47270,8.8125,-37.0625,-9.8125,0
47290,9.25,-37.875,-9.6875,0
47310,9,-37.0625,-8.75,0
47330,8,-34.9375,-6.5625,0
47350,11.5625,-36.125,-3.3125,0
47370,13.5625,-36.125,2,0
47390,6.0625,-31.375,4.875,0
47410,1.375,-30.75,2.6875,0
47430,4.6875,-29.5625,2.5,0
47450,8.1875,-29.25,8.375,0
47470,12.0625,-27.0625,12.9375,0
47490,2.625,-20.1875,13.875,0
47510,-2.125,-18.5625,10.875,0
47530,-1.9375,-17.125,13.6875,0
47550,2.3125,-13.1875,18.75,0
47570,0.625,-7.5625,18.4375,0
47590,-4.625,-4,17.3125,0
47610,-3.125,-3,18.1875,0
47630,0.3125,-1.1875,19.5,0
47650,-0.25,3.0625,20.875,0
47670,-1.25,5.3125,20,0
47690,-3.9375,6.375,20.125,0
47710,-6.5625,10.0625,20.375,0
47730,-6.6875,12.3125,21.3125,0
47750,-5.6875,13.875,22.9375,0
47770,-2.4375,16.125,25.6875,0
47790,1.3125,15.625,28.25,0
47810,4.3125,17,31.375,0
47830,3.9375,18.75,35.3125,0
47850,2.6875,23.375,37.1875,0
47870,3.6875,23.1875,37.3125,0
47890,7.5,22.5,36.625,0
47910,6.9375,23.6875,34.5,0
47930,7,23.8125,31.8125,0
47950,5.5,23.25,28.8125,0
47970,5.0625,24.5,27.875,0
47990,2.6875,24.875,26.3125,0
48010,3.125,24.6875,24.3125,0
48030,1.8125,24.6875,22.6875,0
48050,-1,25.1875,21.625,0
48070,0,25.0625,21.4375,0
48090,0.375,24.375,20.375,0
48110,-1.3125,24.875,19.5,0
48130,-1.5625,23.875,19.5,0
48150,0.125,23.25,18.75,0
48170,-1.125,24.375,18.625,0
48190,-5.625,25.1875,17.4375,0
48210,-9.4375,23.125,16.5625,0
48230,-7.4375,21.9375,16.75,0
48250,-7.125,22.875,14.9375,0
48270,-10.75,24.0625,14.9375,0
48290,-10.25,23.6875,15,0
48310,-10.6875,24.3125,14.875,0
48330,-10.25,23.9375,15.4375,0
48350,-10.5625,25.75,14.75,0
48370,-10.75,25.6875,13.9375,0
48390,-9.625,25,14.8125,0
48410,-6.9375,26.5,14.9375,0
48430,-8.1875,27.5,14.125,0
48450,-11.5,27.25,12.6875,0
48470,-9.5,28.3125,12.3125,0
48490,-5.4375,29.25,12.6875,0
48510,-2.5625,29.375,12.75,0
48530,-3,30.75,12.75,0
48550,-4.375,30.5625,10.8125,0
48570,-4.5,30.625,8.6875,0
48590,-4.5625,30.4375,6.6875,0
48610,-4.4375,29.25,5.5,0
48630,-4.25,29.8125,4.1875,0
48650,-4.3125,30.625,0.5625,0
48670,-6.5,29.625,-3.4375,0
48690,-6.3125,28.6875,-5.6875,0
48710,-3.75,29.25,-8.4375,0
48730,-6.125,30.125,-11.4375,0
48750,-10,29.5625,-15.25,0
48770,-6.5,29.9375,-18.625,0
48790,-4.3125,29.8125,-20.3125,0
48810,-4.75,30.25,-23,0
48830,-7.625,29.25,-26.5,0
48850,-7.875,29.125,-26.9375,0
48870,-5.8125,27.4375,-25,0
48890,-6.5,26.0625,-24.1875,0
48910,-9.8125,25.8125,-23.625,0
48930,-11.75,24.5625,-22.6875,0
48940,-11.375,22.3125,-22.375,0
48960,-10.4375,22.3125,-21.6875,0
48980,-8.5625,22.375,-21.5,0
49000,-11.875,21.9375,-23.375,0
49020,-15.5625,20.4375,-25.5,0
49040,-13.0625,17.25,-28.25,0
49060,-9.375,16.0625,-28.875,0
49080,-6.875,15.9375,-30,0
49100,-6.125,14.8125,-30.0625,0
49120,-6.0625,14.75,-32,0
49140,-2.3125,12.625,-33,0
49160,0.625,9.3125,-32.4375,0
49180,0.5,6.6875,-31.75,0
49200,3.5625,6.9375,-31.8125,0
49220,5.5,5.875,-32.75,0
49240,6.1875,4.8125,-32.625,0
49260,5.5625,4,-31.5,0
49280,7.5625,2.375,-29.5625,0
49300,10.25,-0.8125,-30.125,0
49320,11.6875,-1.25,-30.0625,0
49340,10.5,-2.0625,-29.4375,0
49360,8,-3.75,-31.25,0
49380,11,-4.875,-32.0625,0
49400,12.5,-4.8125,-33.6875,0
49420,13.3125,-6.0625,-34.125,0
49440,14,-7.5625,-32.75,0
49460,16.9375,-10.5,-31.875,0
49480,16.75,-11.3125,-33.1875,0
49500,16.75,-13.4375,-33.625,0
49520,19,-16.125,-29.625,0
49540,19.1875,-18.8125,-29.625,0
49560,15.4375,-20.0625,-31.75,0
49580,18.5,-23.375,-30.625,0
49600,23.9375,-28.375,-26.0625,0
49620,21.875,-29.75,-23.6875,0
49640,18.5,-30.9375,-23.6875,0
49660,19.25,-33.3125,-23.4375,0
49680,22.4375,-38.6875,-21.6875,0
49700,23.5625,-41.625,-19.5625,0
49720,22.1875,-40.1875,-19.4375,0
49740,22.4375,-40.1875,-21,0
49760,23.0625,-42.8125,-20.25,0
49780,23,-43.75,-18.0625,0
49800,23.375,-43.5,-16.1875,0
49820,22.8125,-43.75,-14.0625,0
49840,21.875,-43.25,-11.9375,0
49860,19.8125,-44.5625,-11,0
49880,18.5,-43.25,-10.625,0
49900,19.6875,-42.125,-8.6875,0
49920,19.8125,-45.8125,-6,0
49940,18.0625,-44.9375,-1.9375,0
49960,17.0625,-41.625,0.9375,0
49980,16.4375,-42.8125,4.9375,0
50000,15.5,-41.5625,10.6875,0
50020,15.9375,-36.5625,12.25,0
50040,16.75,-33.4375,16,0
50060,13.125,-31.8125,19.875,0
50080,10.8125,-27.625,22,0
50100,11.125,-22.3125,23.0625,0
50120,6.8125,-19.125,21.5625,0
50140,8.625,-18.125,23.3125,0
50160,8.3125,-18.5,27.375,0
50180,9.75,-15.125,30.625,0
50200,9.25,-12.3125,29.9375,0
50220,7.125,-13.8125,29.375,0
50240,1.9375,-12.3125,30.8125,0
50260,1.25,-11.375,32.5625,0
50280,6.0625,-12.4375,32.375,0
50300,9.3125,-13.375,35.4375,0
50320,10.3125,-11.625,39.25,0
50340,1.25,-8.4375,40.9375,0
50360,-4.875,-8.375,41.5625,0
50380,-0.6875,-7.5,42,0
50400,7.6875,-7.1875,41.5625,0
50420,9.0625,-4.625,39.75,0
50440,3.375,-1.3125,37.625,0
50460,-0.8125,0.9375,35.125,0
50480,-1.75,3.75,32.375,0
50500,0.875,6.375,29.6875,0
50520,-1.625,8.25,28.25,0
50540,-5.5625,10,25.9375,0
50560,-8.4375,10.4375,25.625,0
50580,-8.4375,10.9375,25.9375,0
50600,-5.3125,12.25,26,0
50620,-3.5,12.5625,26.3125,0
50640,-4.25,15.25,25.375,0
50660,-4.9375,17.0625,25.4375,0
50680,-4.4375,18.9375,23.9375,0
50700,-1.125,20.0625,22.9375,0
50720,2.3125,20.6875,22.875,0
50740,3.25,24.0625,23.125,0
50760,0.625,26.6875,22.4375,0
50780,1,27.0625,20.8125,0
50800,3.5625,27.875,21.1875,0
50820,3.375,29.8125,21.125,0
50840,4.1875,29.3125,18.4375,0
50860,1.9375,32.375,17.625,0
50880,0.5625,32,16.0625,0
50900,0.875,31.75,16.0625,0
50920,2.9375,31.625,15.75,0
50940,2.625,29.9375,14.75,0
50960,0.8125,29.625,14.0625,0
50980,2.3125,29.6875,13.6875,0
51000,3.375,29.75,13.125,0
51020,-0.3125,29.125,12.0625,0
51040,0.375,29.75,10.625,0
51060,4.3125,30,11,0
51080,5.5625,30.4375,10.9375,0
51100,2.875,30.5,8.5,0
51120,0,31.5625,7.875,0
51140,2.875,34.375,6,0
51160,3.4375,35.5,4.75,0
51180,3.5,34.9375,2.9375,0
51200,4.3125,35.625,0.25,0
51220,4.25,35.1875,-3.25,0
51240,2.9375,34.375,-4.25,0
51260,4.1875,35.125,-7.1875,0
51280,4.875,36.0625,-7.4375,0
51300,2.625,35.5625,-10.1875,0
51320,0.75,35.6875,-13.3125,0
51340,2.125,34.1875,-16,0
51360,0.4375,34.75,-18.25,0
51380,-1.375,36.5,-19.625,0
51400,-1.9375,34.625,-20.25,0
51420,0.5,33,-20.8125,0
51440,-1.9375,33.25,-21.625,0
51460,-3.5625,33.375,-22.875,0
51480,-5.0625,35.1875,-23.4375,0
51500,-6.625,34.6875,-22.8125,0
51520,-6.5625,34.4375,-25.875,0
51540,-5.375,32.1875,-30.875,0
51560,-4.8125,30.3125,-31,0
51580,-3.0625,30.875,-34.4375,0
51600,-10.0625,28.6875,-39.0625,0
51620,-13.125,25.875,-40.6875,0
51640,-11.125,23.9375,-39.3125,0
51660,-8.4375,20.9375,-36.3125,0
51680,-12.1875,19.6875,-36.5,0
51700,-16.25,19.625,-37.6875,0
51720,-16.3125,17.9375,-36.8125,0
51740,-10.9375,14.8125,-31.125,0
51760,-9,14.6875,-27.4375,0
51780,-11.3125,18.0625,-29.5625,0
51800,-15,16.0625,-31.8125,0
51820,-14.75,12.25,-30.875,0
51840,-12.3125,10.625,-29.6875,0
51860,-12.125,11.6875,-29,0
51880,-11.75,8.8125,-30.375,0
51900,-12.25,8.5625,-31.875,0
51920,-12.625,6.375,-29.625,2001
51940,-10.1875,4.6875,-26.0625,0
51960,-6.8125,3.125,-24.3125,0
51980,-6.6875,2.3125,-22.8125,0
52000,-9.125,1.4375,-19.875,0
52020,-7.4375,-1.9375,-17.375,0
52040,-0.4375,-6.125,-12.5625,0
52060,3.625,-5.0625,-3.25,0
52080,2.5625,-4.25,2.125,0
52100,4.1875,-7.875,5.1875,0
52120,5.9375,-9.4375,8.75,0
52140,7.5,-7.625,10.5,0
52160,6.5,-8.375,11,0
52180,2.5,-6,9.4375,0
52200,1.9375,-4.25,8.1875,0
52220,1.8125,-4.8125,7.4375,0
52240,2.625,-4.1875,8.75,0
52260,3.3125,-4.3125,10.8125,0
52280,2.5625,-4.5,12.5,0
52300,2.625,-5.1875,15,0
52320,3.4375,-8.4375,17.625,0
52340,7.6875,-13,21.5625,0
52360,9.8125,-17.1875,26.625,0
52370,9.6875,-18.625,29.4375,0
52390,8.0625,-20.375,30.0625,0
52410,10.9375,-23.9375,34.3125,0
52430,17,-28.25,42.25,0
52450,16.1875,-33.6875,50.125,0
52470,5.3125,-37.6875,53.3125,0
52490,2.375,-41.375,55.875,0
52510,9.75,-46.6875,57.1875,0
52530,10.375,-53.8125,60.375,0
52550,2.3125,-61.5,64.875,0
52570,-6.9375,-64.1875,68,0
52590,-6.5,-65.0625,71.375,0
52610,0.125,-66.0625,81.375,0
52630,1.375,-70.0625,83.125,0
52650,-5.6875,-59.8125,68.875,0
52670,-15.125,-43.875,62.5,0
52690,-19.8125,-40.8125,63.625,0
52710,-14.9375,-39.6875,64.625,0
52730,-16.9375,-31.9375,57.6875,0
52750,-22.875,-20.5,53.5,0
52770,-28.375,-10.9375,52.6875,0
52790,-30.6875,-3.1875,58.1875,0
52810,-26.375,-0.6875,58.75,0
52830,-25.3125,0.5625,55.8125,0
52850,-22.9375,3.5625,55.8125,0
52870,-20.625,4.4375,54.625,0
52890,-17.1875,5.375,50.125,0
52910,-21.875,6.375,43.875,0
52930,-21.0625,7.9375,34.75,0
52950,-23.375,8.625,30.1875,0
52970,-28.4375,9.375,26.4375,0
52990,-27.625,11.125,26.125,0
53010,-22.125,7.375,24.25,0
53030,-14.6875,2.125,20.5,0
53050,-15.1875,-2.125,15.5,0
53070,-11.125,-0.25,12.1875,0
53090,-12.5,1.75,9.0625,0
53110,-12.3125,-2.8125,8.75,0
53130,-1.1875,-7.9375,10.75,0
53150,3.3125,-9.4375,15.6875,0
53170,4.25,-8.0625,17.1875,0
53190,0.625,-5.6875,13.25,0
53210,-3.8125,-1.25,6.5625,0
53230,-6.5,-0.125,2.4375,0
53250,-5.25,-3.4375,4.0625,0
53270,-3.75,-5.125,4.6875,0
53290,-2.625,-5,2.4375,0
53310,-2.5,-5,2.5625,0
53330,-0.5,-4.875,3.8125,0
53350,-0.75,-3.75,3.375,0
53370,-3.0625,1.3125,4.3125,0
53390,-4.0625,1.375,1.875,0
53410,-1.625,-1.375,0.75,0
53430,-1,-1.25,3.125,0
53450,1.9375,-1.8125,4.75,0
53470,0,-2.125,4.6875,0
53490,0.875,-2.5,3.3125,0
53510,0.375,-3.5625,2.1875,0
53530,0.6875,-7,1.1875,0
53550,1.3125,-10.5625,2.3125,0
53570,0.5,-8.6875,1.75,0
53590,-1.9375,-8.25,1.5,0
53610,-1.875,-14.0625,0.0625,0
53630,2.9375,-21.5,2.0625,0
53650,5.6875,-23.5625,6,0
53670,5.1875,-26.1875,11.625,0
53690,10.0625,-35.125,17,0
53710,7.25,-40.1875,19.25,0
53730,4.3125,-48.75,20.5,0
53750,7.75,-60.0625,21.4375,0
53770,12.5625,-73.375,22.75,0
53790,11.375,-70.75,26.25,0
53810,2.9375,-68.5,28.9375,0
53830,-5.5625,-67.5625,22.5,0
53850,-5.625,-69.5625,14.25,0
53870,-6.375,-73.75,2.0625,0
53890,0.375,-75.4375,-6.8125,0
53910,-8.125,-63.6875,-6.5,0
53930,-22.6875,-57.6875,-15.0625,0
53950,-21.4375,-58.6875,-20.75,0
53970,-19,-53.625,-24.9375,0
53990,-14.125,-40,-30.875,0
54010,-11,-25.75,-29.75,0
54030,-4.5,-15.9375,-24,0
54050,1.5,-8.1875,-21.1875,0
54070,3.1875,0.75,-18.625,0
54090,3.125,9.0625,-14.6875,0
54110,2.25,15.0625,-9.4375,0
54130,4.375,15.3125,-5.625,0
54150,6.5,14.875,-0.4375,0
54170,3.6875,15,3.25,0
54190,-0.0625,15,4.625,0
54210,-1.9375,16.125,7.125,0
54230,-3.25,16.0625,9.25,0
54250,-2.25,15.5,10.8125,0
54270,-2,15.1875,11.3125,0
54290,-3.6875,16.6875,11.5625,0
54310,-5.0625,19.6875,10.5,0
54330,-5.125,22.6875,11.0625,0
54350,-5.9375,27.125,9.75,0
54370,-4.4375,30.6875,4.4375,0
54380,-4,37,1.125,0
54400,-4.6875,43.6875,-4.5,0
54420,-4.8125,48.5,-10.3125,0
54440,-6.875,51.125,-16.625,0
54460,-4.625,55.375,-20.125,0
54480,-3.4375,55.5,-23.875,0
54500,-5.9375,53.0625,-26.4375,0
54520,-0.1875,48.5625,-26.9375,0
54540,2.1875,38.25,-19.875,0
54560,-0.375,29.375,-21.9375,0
54580,-0.4375,27.125,-27.625,0
54600,2.5,24.5,-24.8125,0
54620,4.3125,21.1875,-23.6875,0
54640,2.6875,18.9375,-22.5,0
54660,0.75,23.4375,-19.25,0
54680,-0.875,24.0625,-9.9375,0
54700,12.8125,22.125,-5.1875,0
54720,13.75,25.375,-4.0625,0
54740,7.75,29.0625,0.4375,0
54760,4.625,22.8125,0.8125,0
54780,0.875,15.125,0.25,0
54800,-0.5625,12.875,-0.8125,0
54820,-4.375,18.0625,-0.5625,0
54840,3.625,9,0.8125,0
54860,3.375,-1.3125,-1.0625,0
54880,-0.5,-7.3125,-3.1875,0
54900,0.4375,-9.75,-2.375,0
54920,3.6875,-13,-0.5,0
54940,5.9375,-14.8125,0.3125,0
54960,2.625,-14.6875,-0.375,0
54980,0.6875,-13.6875,-1.9375,0
55000,0.75,-13.3125,-2.25,0
55020,1.375,-12.9375,0.875,0
55040,0.5,-10.5,0.4375,0
55060,-2.25,-8.4375,0.25,0
55080,-5.5625,-5.6875,4.1875,0
55100,-6.0625,-4.6875,11.0625,0
55120,-4.875,-6.9375,13.8125,0
55140,-4.6875,-8.25,19.1875,0
55160,-3.875,-4.6875,27,0
55180,-4.0625,-1.1875,33,0
55200,-3.1875,2.375,36.625,0
55220,-1.4375,7.5,36.5625,0
55240,-6.375,14.1875,33.1875,0
55260,-9.6875,20.5,27.3125,0
55280,-11.4375,23,18.6875,0
55300,-14.25,24.375,11.3125,0
55320,-16.3125,25.6875,5.3125,0
55340,-17.1875,26.5625,-0.5625,0
55360,-17.4375,26.4375,-4.5625,0
55380,-14.9375,22.125,-5.4375,0
55400,-8.75,14.9375,-5.125,0
55420,-1.4375,9.5,-3.4375,0
55440,1.75,8.875,-1.125,0
55460,1.75,7.375,-0.4375,0
55480,4.6875,-0.3125,0.0625,0
55500,6.25,-4.4375,1.375,0
55520,5.875,-3.75,0.875,0
55540,3.625,-3.375,-0.75,0
55560,-1.875,-3.6875,-3.875,0
55580,-7.9375,-2.75,-7.375,0
55600,-11.875,-1.1875,-9.5625,0
55620,-12.625,-0.375,-9.5625,0
55640,-8.375,-0.1875,-7,0
55660,-5.1875,0.5,-4.3125,0
55680,-0.75,-0.0625,-1.25,0
55700,2.25,-1,0.75,0
55720,1.6875,0.75,0.875,0
55740,-0.625,4.375,-0.125,0
55760,-1.875,5,-1.25,0
55780,0.8125,2.625,-1.1875,0
55800,2.75,1.3125,-0.125,0
55820,2.1875,1.625,0.125,0
55840,1.9375,1.1875,0.3125,0
55860,-0.5625,0.5625,1.6875,0
55880,-2.125,-1.25,1.9375,0
55900,-2.625,-0.875,2.875,0
55920,-1.8125,-1.5,3.4375,0
55940,1.375,-3.3125,3.5,0
55960,2.5625,-3.6875,3.6875,0
55980,1.6875,-2.1875,3.125,0
56000,-0.375,-0.9375,2.3125,0
56020,-0.75,-1,1.875,0
56040,0.4375,-1.0625,1.6875,0
56060,0.5,0.375,1.625,0
56080,0.0625,1,0.25,0
56100,0.3125,1.5,0.6875,0
56120,0.75,2.625,1.25,0
56140,0.6875,3.5625,1.4375,0
56160,0.625,3.5,1,0
56180,-0.375,3.125,1.3125,0
56200,-1.5625,3.625,1.5625,0
56220,-1.25,3.8125,1.625,0
56240,-2.625,5.0625,1.6875,0
56260,-3.4375,7.0625,0.5,0
56280,-1.625,7.125,1.5625,0
56300,2.1875,2.6875,2,0
56320,-0.1875,2.3125,1.8125,0
56340,1,0.375,0.9375,0
56360,0.6875,2.6875,0.6875,0
56380,2,2.875,1.0625,0
56400,-0.0625,2.375,2.1875,0
56420,1.0625,1.125,0.75,2000
56440,1.1875,0.5,0.4375,0
56460,-0.6875,1.3125,0.3125,0
56480,-0.6875,2.625,0.625,0
56500,0.25,1.4375,1.5,0
56520,-0.3125,-0.4375,1.4375,0
56540,0.3125,-2.5,1.25,0
56560,2.125,-0.4375,1.5,0
56580,-0.6875,2.625,2.625,0
56600,-1.9375,3.25,3.3125,0
56620,0.3125,1,3.25,0
56640,1.9375,0.9375,4.125,0
56660,1.0625,2.75,4.0625,0
56680,-1.1875,4,3.25,0
56700,-2.1875,5.8125,3.125,0
56720,-3.4375,7.8125,2.875,0
56740,-4.4375,10.375,1.6875,0
56760,-7.375,12.625,-0.125,0
56780,-6.75,12.4375,-1.0625,0
56800,-5.4375,14.3125,-0.0625,0
56820,-2.5625,16.5625,0.0625,0
56840,-5.125,19.1875,-1,0
56860,-5.1875,19.625,-4.125,0
56880,-1.875,17,-3.625,0
56900,-0.5,16.5625,-3.375,0
56920,-0.625,18.8125,-4.3125,0
56940,-1.25,19.875,-6.8125,0
56960,-0.375,18.9375,-8.375,0
56980,0.5625,18.125,-9.75,0
57000,-0.0625,19.1875,-10.625,0
57020,-0.9375,18.875,-13.9375,0
57040,-1.5,18.9375,-16.9375,0
57060,-0.3125,19.9375,-14.25,0
57080,3.5,17.125,-13.5625,0
57100,5.375,14.625,-14.25,0
57120,3.1875,13.5,-15.25,0
57140,3.25,16.125,-16.6875,0
57160,3.1875,17.1875,-16.125,0
57180,3.3125,16.625,-16.6875,0
57200,3.25,14.875,-17.5,0
57220,4.4375,12.875,-18.25,0
57240,5.875,12.5,-17.5,0
57260,5.6875,12.8125,-17,0
57280,7.375,13.0625,-18.1875,0
57300,8.5,10,-18.6875,0
57320,8.9375,6.9375,-18.5625,0
57340,8.625,6.0625,-19,0
57360,9.25,5.8125,-18.1875,0
57380,11.4375,1.625,-17.875,0
57400,13.375,-3.4375,-16.9375,0
57420,11.25,-6.5625,-17.3125,0
57440,10.125,-4.6875,-17.4375,0
57460,11.875,-4.6875,-17,0
57480,13.0625,-7.3125,-17.5,0
57500,12.5625,-10.1875,-18.1875,0
57520,11.0625,-12.75,-20.5625,0
57540,11.375,-14.1875,-22.0625,0
57560,10.5625,-14.6875,-23.3125,0
57580,8.6875,-16.125,-24.3125,0
57600,8.8125,-19.375,-25.8125,0
57620,8.5625,-23.1875,-25.75,0
57640,9.4375,-26.8125,-25.6875,0
57660,10.3125,-29.9375,-26,0
57680,10.5,-31.9375,-25.875,0
57700,11.5625,-36.8125,-26.125,0
57720,11.0625,-40.75,-25.9375,0
57740,12.375,-44.25,-24.625,0
57760,14.3125,-47.6875,-24,0
57780,12.3125,-48.125,-25.1875,0
57800,8.5,-47.4375,-27.75,0
57810,8.4375,-47.0625,-26.8125,0
57830,10.25,-47.9375,-26.4375,0
57850,10.125,-49.3125,-27.3125,0
57870,10.5625,-49.375,-27.125,0
57890,10.6875,-48.875,-26.4375,0
57910,12.5,-48.6875,-24.875,0
57930,12,-48.875,-23.25,0
57950,10.5,-47.375,-23.875,0
57970,8.25,-42.3125,-24.0625,0
57990,8.625,-40.0625,-24.75,0
58010,11.5,-40.125,-22.5625,0
58030,14.8125,-43,-21.1875,0
58050,14.875,-41.4375,-19.25,0
58070,13.9375,-37.6875,-17.5,0
58090,13.6875,-34.1875,-16.6875,0
58110,14.875,-31.875,-15.75,0
58130,15.6875,-35.3125,-12.5,0
58150,16.5625,-37.5,-6.9375,0
58170,15,-34.5,-8.1875,0
58190,9.625,-25.25,-13.4375,0
58210,6.3125,-20.5,-15.3125,0
58230,8.125,-24.875,-14.0625,0
58250,10.1875,-28.4375,-9.5625,0
58270,10.8125,-26.1875,-8.25,0
58290,4.9375,-22.375,-10.8125,0
58310,3.1875,-18.6875,-11.875,0
58330,10.25,-21.75,-8.5,0
58350,11.9375,-22.5,-3.5625,0
58370,10.875,-19.5625,-1.5,0
58390,5.5,-14.4375,-2.4375,0
58410,2.4375,-10.6875,-1,0
58430,8.0625,-12.75,1,0
58450,12.1875,-13.4375,5.375,0
58470,11,-11.75,8.0625,0
58490,7.6875,-8.0625,8.0625,0
58510,4.6875,-6.75,9.6875,0
58530,5.4375,-7.3125,12.375,0
58550,3.6875,-4.25,14.875,0
58570,0.6875,-1,16.5625,0
58590,0,1,18.375,0
58610,0.875,3.125,20.3125,0
58630,-0.0625,4.1875,21.125,0
58650,-4.125,7.4375,21.9375,0
58670,-3.25,8.75,20.9375,0
58690,-4.6875,8.3125,21,0
58710,-6.4375,11.9375,20.375,0
58730,-7.75,10.5,18.9375,0
58750,-9.625,10.25,17.75,0
58770,-8.875,11.9375,18.5,0
58790,-4.8125,12.625,19.0625,0
58810,-4.1875,9.6875,20.9375,0
58830,-9.875,10.9375,20.8125,0
58850,-16.375,14.625,19.5,0
58870,-18.25,16.5625,20.8125,0
58890,-13.625,18.0625,24.375,0
58910,-8.6875,20.25,26.25,0
58930,-6.375,19.8125,24.8125,0
58950,-4.625,21.375,24.8125,0
58970,-7.6875,23.5,24.5625,0
58990,-9.375,25.5625,21.6875,0
59010,-10.25,25.125,20.75,0
59030,-4.9375,24.6875,21.75,0
59050,-1.375,23.75,21.875,0
59070,-1.4375,24.75,20.375,0
59090,-4.75,25.875,19.3125,0
59110,-4.5,25,19.5,0
59130,-1.875,24.9375,18.875,0
59150,0.3125,26.6875,18.875,0
59170,0.0625,26.625,19.5,0
59190,3.0625,25.25,19.125,0
59210,2.125,26.125,19.6875,0
59230,2.1875,28.125,20.25,0
59250,3.75,28.5,19.25,0
59270,3.375,27.8125,19.375,0
59290,3.6875,26.375,18.3125,0
59310,3.5,26.5625,16.375,0
59330,1.875,28.25,16.0625,0
59350,1.5,27.1875,14.4375,0
59370,0.875,26.1875,14.75,0
59390,1.875,25.375,16.625,0
59410,2.6875,24.9375,16.6875,0
59430,1.5625,25.5625,17.3125,0
59450,3,24.6875,19.3125,0
59470,6.375,24.125,19.8125,0
59490,6.125,23.25,19.25,0
59510,4.3125,23.6875,18.125,0
59530,5,25.9375,16.75,0
59550,7.1875,26.0625,17.875,0
59570,9.625,26,17.5,0
59590,7.5,27.9375,17.5,0
59610,6,28.5625,16.3125,0
59630,6.75,28.625,15.4375,0
59650,7.9375,30.25,13.4375,0
59670,7.625,30.875,11,0
59690,3.625,29.1875,7.8125,0
59710,1.9375,27.9375,4.3125,0
59730,1.75,29.375,1.5625,0
59750,0.75,29.875,-1.25,0
59770,-1.125,28.3125,-3.625,0
59790,-0.1875,27.6875,-6.1875,0
59810,1,27.9375,-8,0
59820,0.6875,27.8125,-9.25,0
59840,-0.625,28.5625,-10.125,0
59860,-0.125,28.3125,-10.6875,0
59880,0.4375,24.9375,-11.375,0
59900,0.3125,25.4375,-11.3125,0
59920,-0.9375,26.375,-13.4375,0
59940,0.875,22.625,-14.125,0
59960,8.5,19,-13.6875,0
59980,8.25,19.75,-13.3125,0
60000,5.375,21.0625,-16.625,0
60020,1.625,21,-20,0
60040,2.0625,18,-19.6875,0
60060,2.5,15.875,-18.1875,0
60080,3.125,15,-18.75,0
60100,4.625,14.5625,-19.375,0
60120,7.6875,12.5,-20,0
60140,9.5625,11.875,-21.25,0
60160,5.1875,14.125,-22.6875,0
60180,4.1875,12.125,-27.6875,0
60200,3.9375,10,-31.8125,0
60220,6.5,5.9375,-32.375,0
60240,5.5,4.875,-31.5625,0
60260,4.125,5.375,-35.25,0
60280,2.8125,6.4375,-39.4375,0
60300,4.3125,3.25,-40.8125,0
60320,7.25,-1.625,-40.375,0
60340,10.875,-3.75,-39.625,0
60360,7.6875,-4.5,-40.4375,0
60370,8,-3.9375,-40.8125,0
60390,9.875,-9.8125,-44.1875,0
60410,11.9375,-17,-43.0625,0
60430,12.75,-20.8125,-41.5,0
60450,11.1875,-19.1875,-43.5,0
60470,9.75,-17.1875,-44.625,0
60490,10.6875,-21.9375,-42.5,0
60510,12.5,-25.625,-40,0
60530,16.0625,-27.5,-39.875,0
60550,17.4375,-26.5625,-39.75,0
60570,18.625,-27.0625,-39.625,0
60590,16.375,-28.9375,-40,0
60610,16.1875,-31.3125,-40.625,0
60630,17.75,-30.0625,-40.5625,0
60650,17.25,-30.875,-39.4375,0
60670,16.5625,-33.0625,-37.3125,0
60690,15.25,-35.1875,-35.125,0
60710,17.125,-37.875,-31.875,0
60730,14.9375,-39.25,-29.9375,0
60750,11.9375,-39.125,-27.5,0
60770,14.125,-39.0625,-25.5,0
60790,11.5,-38.9375,-25.0625,0
60810,10.0625,-39.5625,-22.9375,0
60830,11.3125,-42.375,-20.125,0
60850,13.5,-42.4375,-17.0625,0
60870,13.75,-41.875,-14.0625,0
60890,12.25,-39.5,-13.0625,0
60910,11,-38.8125,-13.5,0
60930,11.5625,-40.25,-11.8125,0
60950,11.875,-40.5625,-10.375,0
60970,12.4375,-39.5625,-9.125,0
60990,10.6875,-36.25,-8.9375,0
61010,12.5625,-36.25,-8.0625,0
61030,13,-38.125,-5.5625,0
61050,14.125,-35.4375,-0.875,0
61070,10.1875,-32,0.4375,0
61090,8.3125,-30.5625,0.875,0
61110,8.625,-30.8125,4.3125,0
61130,12.375,-31,10.0625,0
61150,13.8125,-25.5625,15.25,0
61170,11.4375,-21.5,16.8125,0
61190,8.5625,-20.6875,15.75,0
61210,7.0625,-20.25,16.6875,0
61230,6.0625,-17.875,20.3125,0
61250,8.6875,-15.625,25.3125,0
61270,7.3125,-11.6875,26.9375,0
61290,0.6875,-5.1875,24.5625,0
61310,0.5625,-3.1875,23.4375,0
61330,2.9375,-2.25,26.625,0
61350,5.875,2.4375,30.5625,0
61370,2.625,7.1875,28.875,0
61390,-0.375,8.625,25.4375,0
61410,0.1875,8.375,27.375,0
61430,3.25,10.1875,30.5625,0
61450,4.5,14.125,28.5625,0
61470,-3.25,15.125,26.1875,0
61490,-4.75,15.0625,26.1875,0
61510,1,14.75,27.4375,0
61530,4.6875,16.3125,28.1875,0
61550,-2.8125,19.625,27.25,0
61570,-7.25,19.375,27.75,0
61590,-4.875,17.3125,31.3125,0
61610,0.3125,18.3125,35.8125,0
61630,5.25,17.9375,35.25,0
61650,-1.9375,20.875,34.875,0
61670,-1.9375,21.5625,35.5625,0
61690,1.875,20.5625,34.25,0
61710,3.0625,21.5625,32.125,0
61730,3.6875,23.375,31.625,0
61750,-2.1875,24.5,29.875,0
61770,-7.625,25.375,26.875,0
61790,-4.375,23.8125,26.375,0
61810,2.875,22.375,28.6875,0
61830,7.875,24.1875,29.625,0
61850,4.5625,24.5,28.8125,0
61870,2.1875,24.625,29.25,0
61890,3.375,24.4375,28.625,0
61910,3.8125,24.25,27.875,0
61930,4.8125,23.875,25.375,0
61950,3.1875,24.875,23.625,0
61970,0.125,25.0625,20.4375,0
61990,-1.6875,24.8125,18.125,0
62010,-1.3125,24.5625,17.25,0
62030,-0.0625,25.9375,15.75,0
62050,-1.4375,27.5,13.875,0
62070,-3.9375,26.875,12.8125,0
62090,-1.1875,28.125,12.125,0
62110,0.125,29.5625,10.0625,0
62130,-1.5,28.5625,9.3125,0
62150,0.5625,28.1875,8.5625,0
62170,2.1875,28.6875,7.25,0
62190,1.625,28.375,5.1875,0
62210,-1.5625,29,2.6875,0
62230,-2.5,28.75,-0.125,0
62250,0.75,29.1875,-1.1875,0
62270,2.3125,29.375,-2.9375,0
62290,-0.6875,30,-6,0
62310,-2.375,30.5,-9,0
62330,0.8125,31,-10.125,0
62350,2.5,30.8125,-12.125,0
62370,1.625,29.75,-13.5625,0
62390,1.625,29.3125,-13.0625,0
62410,3.25,28.125,-13.1875,0
62430,4.1875,26.4375,-14.375,0
62450,6.875,26.875,-13.625,0
62470,9.5625,27.25,-13.625,0
62490,10.25,27.25,-15,0
62510,9.75,28.375,-15.5,0
62530,7.75,28.4375,-16.5,0
62550,5.375,27.5625,-18.125,0
62570,5.0625,27.25,-20.375,0
62590,3.3125,27.9375,-21.1875,0
62610,1.5,26.5,-23.125,0
62630,-2.4375,25.75,-26.125,0
62650,-5.3125,25.875,-27.6875,0
62670,-5.625,25.625,-28.125,0
62690,-5.3125,25,-28.6875,0
62710,-4.1875,24.1875,-27.4375,0
62730,-3.5,23.6875,-28.6875,0
62750,-3,21.9375,-29.6875,0
62770,-2,20.25,-28.375,0
62790,1.9375,19,-24.125,0
62810,5.375,17.0625,-19.6875,0
62830,3.8125,15.8125,-20.75,0
62850,6.0625,13.6875,-21.4375,0
62870,11,10.3125,-18.5625,0
62890,12.6875,5.8125,-13.875,0
62910,9.3125,5.0625,-14.5625,0
62930,7,4.1875,-18.625,0
62950,6.875,2.1875,-19.9375,0
62970,9,-1.9375,-18.875,0
62990,12.875,-3.375,-17.6875,0
63010,10.4375,-3.0625,-20.9375,0
63030,6.125,-3.1875,-24.75,0
63050,8.3125,-4.125,-25.8125,0
63070,12.875,-7.25,-25.875,0
63090,13.75,-7.5625,-25.4375,0
63110,11.3125,-8.6875,-25.125,0
63130,8.5,-10.375,-26.375,0
63150,8.9375,-11.4375,-28.8125,0
63170,12.5625,-13.6875,-29.4375,0
63190,13.75,-16.125,-29.4375,0
63210,12.125,-18.75,-28.625,0
63230,11.3125,-20.25,-28.8125,0
63240,12.5,-22.75,-27.625,0
63260,12.4375,-24.9375,-26.125,0
63280,12.3125,-25.3125,-26.0625,0
63300,12.8125,-25.5625,-27.0625,0
63320,13.125,-26.4375,-26.25,0
63340,13,-27.375,-25.5,0
63360,12.875,-29.25,-26.0625,0
63380,14.4375,-31.4375,-27.1875,0
63400,16.4375,-31.125,-26.4375,0
63420,16.125,-30.625,-25.25,0
63440,13.375,-30.875,-25.375,0
63460,15,-33.25,-25.375,0
63480,17.5,-34.375,-23.25,0
63500,16.8125,-34,-21.75,0
63520,16.5625,-34.5625,-20.75,0
63540,19.375,-36.4375,-18.375,0
63560,22.125,-39.5,-13.6875,0
63580,22.625,-42.125,-10.25,0
63600,20.625,-43.5625,-8.25,0
63620,17.9375,-43.9375,-7.1875,0
63640,16.4375,-43.25,-6.4375,0
63660,16.9375,-44.375,-3.625,0
63680,15.4375,-45.9375,-2.6875,0
63700,14.8125,-45.75,-2.4375,0
63720,14.0625,-44.4375,-0.875,0
63740,13.875,-43.8125,1.9375,0
63760,12,-42.5625,3.5,0
63780,9.875,-40,3.125,0
63800,5,-38.125,3.8125,0
63820,6.75,-38.1875,9.0625,0
63840,10.875,-39.6875,17,0
63860,7.3125,-39.1875,22.1875,0
63880,0,-34.5625,21.625,0
63900,3.375,-30.4375,20.0625,0
63920,7,-28.0625,25,0
63940,10,-29.6875,29.125,0
63960,5.5625,-25.375,27.3125,0
63980,-3.75,-21.5,24.875,0
64000,-7.875,-22.125,25.6875,0
64020,-2.8125,-23.0625,28,0
64040,1,-20.25,29.125,0
64060,-1.875,-15.125,28.3125,0
64080,-3.25,-12.5625,30,0
64100,-1.0625,-11.875,32.8125,0
64120,0.25,-10.1875,33.25,0
64140,-0.1875,-7.125,34.5,0
64160,-0.1875,-4.0625,36.125,0
64180,2.625,-2.5,37.5625,0
64200,6.75,-1.75,37.75,0
64220,4.4375,0.3125,37.3125,0
64240,-0.625,2.1875,36.5,0
64260,-0.4375,2.75,34.625,0
64280,3.875,4.0625,34.3125,0
64300,3.1875,5.5625,33.0625,0
64320,-3.125,7.625,31.875,0
64340,-2.9375,8.5,29.875,0
64360,0.9375,9.4375,29.5,0
64380,2.5,11.25,28.75,0
64400,0.375,13.875,27.6875,0
64420,-2.3125,14.6875,26.1875,0
64440,0,15.8125,26.3125,0
64460,0.875,18.0625,26.875,0
64480,-1.6875,19.5,25.875,0
64500,-6.9375,20.9375,23.0625,0
64520,-6.625,21.25,22.25,0
64540,-0.9375,21.75,21.4375,0
64560,-3.1875,23.9375,19.625,0
64580,-9.6875,26.6875,18.125,0
64600,-9.1875,27.75,17.9375,0
64620,-2.125,27.9375,17.1875,0
64640,0.375,28.25,16.625,0
64660,-1.4375,30.5625,14.4375,0
64680,-3.3125,32.4375,12.125,0
64700,-0.5625,32.9375,11.5,0
64720,2.3125,34.8125,11.75,0
64740,2.875,36,10.5625,0
64760,2.75,36.3125,10.5,0
64780,2.8125,37.0625,11,0
64800,4.375,38.1875,10.875,0
64820,6.4375,38.75,10.75,0
64840,8.8125,39.75,11.4375,0
64860,7.9375,42.1875,11.25,0
64880,7.5,44.625,9.25,0
64900,6.4375,45.5625,4.6875,0
64920,7.9375,45.875,2.4375,0
64940,13.625,46.4375,0.1875,0
64960,13.5,45.8125,-2.3125,0
64980,9.75,46.5625,-4.6875,0
65000,6.6875,45.5,-6.9375,0
65020,7.0625,43.9375,-8.5,0
65040,9.875,41.375,-10.5625,0
65060,8.5,39,-12.25,0
65080,2.875,36.5625,-12.4375,0
65100,0.25,34,-15.25,0
65120,1.625,32,-17.5,0
65140,0.25,31.3125,-18.3125,0
65160,-1.125,30.4375,-19.5,0
65180,1.1875,30.3125,-18.5625,0
65200,1.6875,28.5,-17.875,0
65220,1.4375,27.0625,-20.625,0
65230,-1.4375,26.8125,-22.625,0
65250,-2.6875,26.25,-23.625,0
65270,-4.75,25.625,-25.4375,0
65290,-3.75,24.875,-27.75,0
65310,-6.375,24.375,-29.6875,0
65330,-8.5,24.125,-32.75,0
65350,-10.25,22.75,-36.25,0
65370,-10.0625,23.125,-37,0
65390,-7.8125,22.5,-38.5625,0
65410,-7.0625,21.9375,-40.4375,0
65430,-7.6875,21.8125,-40.5625,0
65450,-8.25,20.75,-40.9375,0
65470,-9.875,21.25,-38.6875,0
65490,-8.625,19.5625,-38.0625,0
65510,-9.625,17.3125,-38.3125,0
65530,-6.125,14.75,-36.4375,0
65550,-5.375,12.5625,-34.625,0
65570,-7.4375,9.6875,-33.75,0
65590,-7.6875,8.8125,-35.25,0
65610,-7.6875,7.8125,-32.8125,0
65630,-5.8125,5.75,-29.1875,2001
65650,-2,2.1875,-25.25,0
65670,-0.9375,0.75,-19.125,0
65690,0.5,-0.1875,-15.875,0
65710,2.75,-1.625,-12.375,0
65730,2.6875,-4.6875,-6.375,0
65750,4.0625,-7.5,-4,0
65770,2.8125,-7.75,-3.25,0
65790,2.5,-8.875,-1.125,0
65810,2.75,-8.8125,2.6875,0
65830,4.5,-6.0625,7.875,0
65850,3.125,-3.6875,11.4375,0
65870,2.25,-2,14.1875,0
65890,4.0625,-0.4375,18.9375,0
65910,6.9375,0.125,23.75,0
65930,12.875,-1.3125,33.3125,0
65950,17.9375,-5.5,47.6875,0
65970,25.4375,-6.9375,58.0625,0
65990,32.625,-6.5,63.8125,0
66010,41.125,-7.875,72.125,0
66030,48.125,-12.0625,88.3125,0
66050,45.5,-17.8125,95.875,0
66070,41.8125,-20.1875,102.688,0
66090,33.3125,-20.1875,114.625,0
66110,22.5625,-24.75,132.812,0
66130,13.5625,-37.875,141.75,0
66150,1.5625,-48.5625,146.062,0
66170,3.75,-50.8125,160.688,0
66190,4.75,-51.75,159.062,0
66210,-5.625,-53.625,137.375,0
66230,-16.8125,-41.5,129.25,0
66250,-31.5625,-30.1875,123.812,0
66270,-42.9375,-26.125,107.438,0
66290,-41.6875,-23.5,94.1875,0
66310,-37.5625,-17.875,94.8125,0
66330,-35.75,-14.4375,86.5,0
66350,-45.8125,-13.6875,68.75,0
66370,-49.8125,-17.5625,57.125,0
66390,-49.8125,-15.3125,58.4375,0
66410,-39,-15.5625,46.75,0
66430,-34.3125,-16.5625,35.0625,0
66450,-29.8125,-12.75,29.6875,0
66470,-40.1875,-5.0625,25.6875,0
66490,-32.8125,-0.75,16.5,0
66510,-23.5,4.125,9.125,0
66530,-17.0625,6.8125,7.6875,0
66550,-14.5625,12.6875,6.5625,0
66570,-8.0625,14.6875,3.3125,0
66590,-3.875,14.5,2.875,0
66610,-0.875,13.75,0.375,0
66630,2.3125,13,-1.9375,0
66650,5.75,11.4375,-3.9375,0
66670,9,10.8125,-6.0625,0
66690,11.1875,9.9375,-6.5625,0
66710,10.25,6.6875,-7.125,0
66730,10.375,4.625,-8.25,0
66750,10.5,4.4375,-9.5625,0
66770,9.0625,3.875,-7.8125,0
66790,5.75,1.1875,-6.5,0
66810,7.25,0.3125,-6.25,0
66830,10.875,1.375,-3.1875,0
66850,7.375,-0.0625,-2.0625,0
66870,3.9375,0.625,-1.625,0
66890,0.1875,-0.6875,0.6875,0
66910,-0.0625,-1.3125,2.375,0
66930,0.0625,-2.5625,3.1875,0
66950,0.5,-0.9375,3.375,0
66970,-2,-1.4375,4.3125,0
66990,3.4375,-0.625,3.9375,0
67010,2.0625,1.875,3,0
67030,0.4375,1.4375,0.1875,0
67050,-0.25,1.3125,-2.0625,0
67070,-1.375,2.6875,-2.1875,0
67090,0.375,2.6875,-0.5625,0
67110,0.875,1,-0.9375,0
67130,2.5625,1.0625,-1.25,0
67150,2.3125,0.1875,-0.25,0
67170,1.4375,-0.4375,0.625,0
67190,2.4375,-0.0625,0.25,0
67210,0.3125,-0.9375,0.6875,0
67230,3,-1.3125,0.125,0
67250,3.375,-1.5625,0.75,0
67270,1.375,-1.6875,0.375,0
67290,0.5625,-1.5,-0.875,0
67310,3.125,-0.4375,-0.5625,0
67330,2.5625,-0.125,0.5,0
67350,1.0625,-1.375,-1.0625,0
67370,2.6875,-1.875,-2.75,0
67390,3.375,0.5,-1.3125,2000
67410,0.5,1.25,-1.875,0
67430,0.75,0.125,-1.3125,0
67450,0.875,-1.1875,-2.5,0
67470,1.5625,-2.25,-3.375,0
67490,1.0625,-1.125,-1.75,0
67510,-0.25,-1.125,-0.125,0
67530,2.5625,0,0.75,0
67550,2.25,0.375,0.9375,0
67570,1.3125,-0.3125,0.375,0
67590,0.875,-0.1875,-0.6875,0
67610,0.8125,-0.0625,0.625,0
67630,1.6875,-0.0625,0.5625,0
67650,-1,-1,-0.4375,0
67670,-1.1875,-2.0625,-1.375,0
67690,-1,-1.125,-1.125,0
67710,-3.25,-0.625,-0.5625,0
67730,-2.1875,-1.5,-1.25,0
67750,-1.375,-1.3125,-1.6875,0
67770,-0.6875,0.1875,-1.625,0
67790,-1.875,1.3125,-1.375,0
67810,-1.875,1.3125,-0.125,0
67830,-0.75,1.1875,0.125,0
67850,-0.5625,2.6875,0.25,0
67870,-1.3125,3.5625,-0.25,0
67890,-0.25,4.0625,-0.6875,0
67910,0.5,5.375,-0.5,0
67930,2,7.3125,0.3125,0
67950,2.8125,9.1875,-0.125,0
67970,2.375,10.9375,0.1875,0
67990,4.125,12.625,1.8125,0
68010,4.5625,14.4375,1.5625,0
68030,6.25,16.375,0.6875,0
68050,6.1875,18.6875,0.1875,0
68070,5.375,20.5,-0.5,0
68090,5.9375,20.8125,-3.125,0
68110,8.25,20.6875,-6,0
68130,10.375,20.5,-7.5,0
68150,10.6875,23.4375,-9.625,0
68170,10.25,25.0625,-12.125,0
68190,12.1875,22.9375,-13.9375,0
68210,11.5625,23.625,-16.5625,0
68230,10.5625,23.5,-19,0
68250,10,23.625,-20,0
68270,10.5625,24.8125,-21.9375,0
68290,11.25,23.8125,-23.9375,0
68310,11.4375,22.6875,-23.5625,0
68330,9.1875,23.4375,-24.6875,0
68350,13.5625,22.75,-25.6875,0
68370,14.875,20.875,-25.1875,0
68390,13.75,19.8125,-23.4375,0
68410,13.75,17.3125,-21.125,0
68430,14,14.3125,-18.0625,0
68450,16.75,9,-18.875,0
68470,16.8125,3.6875,-18.6875,0
68490,18.375,-0.1875,-18.3125,0
68510,16.75,-2.625,-20.125,0
68530,17.375,-5.75,-20.625,0
68550,14.875,-9.375,-22.1875,0
68570,15.25,-14,-23.375,0
68590,17.25,-17.125,-22.0625,0
68610,17.8125,-18.0625,-22.1875,0
68630,15.8125,-19.1875,-23.25,0
68650,13.0625,-22.4375,-23.4375,0
68660,16.375,-26.875,-22.75,0
68680,18.875,-27,-23.5,0
68700,19,-25.5,-25.8125,0
68720,16.25,-24.75,-27.125,0
68740,15.0625,-26.375,-25.6875,0
68760,15.625,-27.875,-24.125,0
68780,15.4375,-27.625,-22.625,0
68800,15.375,-29.125,-20.0625,0
68820,15.8125,-31.9375,-18.4375,0
68840,15.6875,-35.625,-17.9375,0
68860,16.625,-39.5625,-15.5,0
68880,17.25,-42.4375,-12.4375,0
68900,17.25,-46.8125,-11.25,0
68920,16.6875,-53.0625,-11.5625,0
68940,14.625,-58.5,-12.1875,0
68960,14.125,-61.6875,-11.3125,0
68980,13.3125,-62.25,-8.9375,0
69000,12,-62.5625,-4.625,0
69020,11.9375,-67.3125,-2.5,0
69040,13.625,-70.8125,-1.625,0
69060,12.6875,-67.6875,-0.875,0
69080,8.5,-60.8125,-0.25,0
69100,8.6875,-58.4375,-2.0625,0
69120,10.3125,-59.5625,-2.375,0
69140,12.3125,-62.4375,-2.5625,0
69160,13.875,-61,-2.125,0
69180,10,-54.5625,-2.375,0
69200,8.9375,-52.3125,-5.5625,0
69220,9.75,-51.8125,-8.4375,0
69240,10,-49.625,-8.3125,0
69260,8.4375,-45.5,-6.3125,0
69280,4.875,-42.6875,-7.625,0
69300,6.625,-42.375,-8.3125,0
69320,11,-44.375,-7.0625,0
69340,13.6875,-44.3125,-3.375,0
69360,11.375,-40.3125,3,0
69380,4.625,-37.1875,3.0625,0
69400,-1,-37.9375,0.125,0
69420,4,-37.8125,0.875,0
69440,4,-35.0625,4.0625,0
69460,-6,-29.6875,3.1875,0
69480,-15.25,-25.9375,1.125,0
69500,-14.3125,-22.875,-1.25,0
69520,-15.25,-19.25,-1.5625,0
69540,-14.9375,-15.0625,-1.625,0
69560,-8.9375,-12,0.375,0
69580,-7.6875,-9.9375,1.625,0
69600,-8.1875,-5.1875,3.25,0
69620,-12.1875,-0.125,5.1875,0
69640,-12.75,3.625,7.5625,0
69660,-9.0625,5.0625,10.3125,0
69680,-10.5,6.1875,11.625,0
69700,-10.1875,11.0625,15.25,0
69720,-7.3125,14.125,17.875,0
69740,-4.3125,14.0625,17.125,0
69760,-14.75,16.0625,17.3125,0
69780,-14.5625,16.875,18.5,0
69800,-9.8125,18.5625,17.3125,0
69820,-7.375,18,17.8125,0
69840,-11.375,18.0625,17.75,0
69860,-13.9375,19.875,18.6875,0
69880,-14.875,20.3125,17.125,0
69900,-13.125,20.375,16.6875,0
69920,-7.1875,22.0625,16.375,0
69940,-10.125,23.1875,16.5625,0
69960,-10.625,23.25,16.3125,0
69980,-11.4375,24.1875,16.125,0
70000,-8.4375,25.0625,15.9375,0
70020,-4.5,26.6875,16.25,0
70040,-9.5,27.9375,16.375,0
70060,-10.125,27.875,15.75,0
70080,-7.5625,29.3125,15.5,0
70100,-4.875,31.125,17.375,0
70120,-4.4375,31.8125,17.125,0
70140,-7.0625,32.5625,18.125,0
70160,-6.3125,32.9375,16.75,0
70180,-4.75,31.75,17.3125,0
70200,-2.875,31.5625,18.3125,0
70220,-4.4375,32.875,17,0
70240,-4.4375,31.875,15.4375,0
70260,-0.875,31.8125,14.3125,0
70280,-0.4375,34.0625,14.375,0
70300,0.25,34.6875,12.5625,0
70320,1,35.0625,9.6875,0
70340,1.6875,36.375,8.1875,0
70360,1.25,37.9375,8.125,0
70380,1.1875,38.6875,6.8125,0
70400,0.1875,38.9375,5.9375,0
70420,0.1875,39.625,5.625,0
70440,2.6875,40.3125,7.5,0
70460,2.6875,41.375,7.1875,0
70480,0.8125,40.375,5.5625,0
70500,0.5625,41.1875,4.3125,0
70520,5.75,41.625,2.9375,0
70540,3.8125,42.75,2.125,0
70560,0.1875,45.5625,-1.5,0
70580,-1,44.3125,-5.5,0
70600,3.625,43.625,-5.8125,0
70620,7,43.6875,-7.0625,0
70640,5.625,43.9375,-10.625,0
70660,3.5625,42.5,-12.75,0
70670,3.5625,39.6875,-13.8125,0
70690,3.625,38.1875,-14.6875,0
70710,5,37,-16,0
70730,3.25,35.0625,-17.0625,0
70750,1.75,34.625,-17.0625,0
70770,2.75,33.875,-17.8125,0
70790,3.125,33.25,-19.1875,0
70810,-2,34.3125,-19.875,0
70830,-4.8125,34.4375,-20.25,0
70850,-1.5,33.25,-22.4375,0
70870,0.3125,30.9375,-24.5625,0
70890,1.5,29.3125,-22.25,0
70910,1.9375,28,-20.1875,0
70930,-3.1875,25.9375,-21.875,0
70950,-2.0625,21.9375,-22.875,0
70970,1.5,17.3125,-20.375,0
70990,6.875,14.1875,-16.4375,0
71010,8.125,16.125,-19.25,0
71030,7.5625,13.6875,-20.9375,0
71050,3.875,10.1875,-22.75,0
71070,1.0625,9.3125,-25.8125,0
71090,1.875,11.625,-27.875,0
71110,5.625,9.875,-30.6875,0
71130,7.9375,9.0625,-33.3125,0
71150,8.0625,9.5,-34.9375,0
71170,6.5,7.6875,-37.1875,0
71190,9.75,5.4375,-38.1875,0
71210,16.8125,3.5625,-37.9375,0
71230,14.8125,2.5625,-40.4375,0
71250,13.9375,1.9375,-40.625,0
71270,17.0625,-1.625,-38.4375,0
71290,20.375,-5.5625,-33.3125,0
71310,18.625,-11,-30.5,0
71330,14.8125,-15.3125,-29.625,0
71350,15.5,-19.5625,-30.5625,0
71370,21.0625,-23.8125,-27.8125,0
71390,21.4375,-28.9375,-23.9375,0
71410,18.8125,-32.125,-24.25,0
71430,16.6875,-34.5625,-26.375,0
71450,21.75,-38.5625,-25,0
71470,26.25,-41.4375,-22.25,0
71490,23.125,-43.0625,-23.6875,0
71510,20.75,-43.6875,-23.75,0
71530,21.375,-46.5625,-23.3125,0
71550,24.625,-48.8125,-19.8125,0
71570,24.0625,-50,-17.5625,0
71590,21.5625,-51.25,-16.6875,0
71610,21.5,-54.5,-15.9375,0
71630,22.6875,-56.1875,-14.3125,0
71650,23.625,-55.375,-11.3125,0
71670,22,-53.9375,-10.8125,0
71690,19.5625,-54.4375,-11.5625,0
71710,18.75,-54.625,-11.8125,0
71730,21,-53.9375,-9.4375,0
71750,20.5625,-52.875,-6.3125,0
71770,17.125,-53.0625,-4.625,0
71790,16.4375,-52.875,-2.0625,0
71810,18.5625,-53.1875,1.875,0
71830,18.0625,-54.3125,7.5625,0
71850,15.5625,-54.3125,11.6875,0
71870,15.0625,-55.875,16.9375,0
71890,13.75,-56.75,20,0
71910,8.5,-52.6875,26.125,0
71930,-0.25,-47.25,25.5625,0
71950,-6.125,-45,23.0625,0
71970,-1.6875,-45.8125,24,0
71990,1.625,-41.6875,26.9375,0
72010,-0.0625,-35.625,29.9375,0
72030,-10.1875,-27.75,28.25,0
72050,-19.4375,-23.25,27.3125,0
72070,-17.8125,-15.5625,29,0
72090,-13.875,-11,29.5625,0
72110,-16.125,-6.25,29.4375,0
72130,-17.625,-1.5,30.625,0
72150,-14.6875,2.4375,30.9375,0
72170,-18.5625,5.3125,30.1875,0
72190,-17.875,5.4375,32.125,0
72210,-15.4375,8.3125,35.0625,0
72230,-12.875,9.875,36.375,0
72250,-11.5,9.3125,36.25,0
72270,-14.3125,11.5625,37.6875,0
72290,-12.25,12.375,37.25,0
72310,-13.6875,12.4375,35.6875,0
72330,-8.5625,12.875,34.8125,0
72350,-12.375,14.6875,34.8125,0
72370,-17.375,18.25,33.8125,0
72390,-16.1875,20.3125,33.5,0
72410,-11.75,20.5625,32.125,0
72430,-7.25,24,32.625,0
72450,-10.75,26.875,34,0
72470,-8.875,28.8125,33.5625,0
72490,-7.125,30.75,30,0
72510,-7.0625,33.75,29.0625,0
72530,-8,34.75,27.6875,0
72550,-2.5625,38.125,26.0625,0
72570,0.8125,40.4375,24.5,0
72590,-2.625,41.9375,22.6875,0
72610,-3.25,43.125,20.3125,0
72630,4.6875,44.0625,17.5625,0
72650,6.8125,46.8125,15.5,0
72670,1.8125,48.1875,12.9375,0
72690,-1.3125,47.9375,8.875,0
72710,3.125,46.6875,4.5625,0
72730,4.75,48.25,2.1875,0
72750,0,49.3125,-1.625,0
72770,-4.125,49.1875,-5.3125,0
72790,-0.75,48.1875,-8.5,0
72810,0.75,48.5625,-10.9375,0
72830,2.5,48.375,-11.9375,0
72850,3.1875,46.5,-15.3125,0
72870,2.4375,45.3125,-17.1875,0
72890,2.75,46.3125,-19.375,0
72910,4.8125,43.4375,-21.875,0
72930,3.25,42.375,-23.875,0
72950,6.1875,39.9375,-25.625,0
72970,7.0625,36.6875,-27.5,0
72990,3.8125,34.75,-28.125,0
73010,1.6875,31.6875,-30.5,0
73030,0.75,28.5625,-33.125,0
73050,3.3125,26.75,-34.4375,0
73070,2.9375,24.875,-35.625,0
73090,2.125,24,-36.9375,0
73110,3.3125,21.4375,-39.25,0
73130,0,17.9375,-40.5625,0
73150,-0.5,18.0625,-39.9375,0
73170,2.0625,14.6875,-42.25,0
73190,2,13.3125,-42.5625,0
73210,-2.3125,12.8125,-40.3125,0
73230,-6.375,12.0625,-40.1875,0
73250,-8.75,8.75,-42.25,0
73270,-7.0625,6.375,-43.5625,0
73290,-5.3125,5.125,-42.4375,0
73310,-0.5625,0.1875,-45.0625,0
73330,0.1875,-3.6875,-43,0
73350,-1.5,-7.875,-41.625,0
73370,-1.6875,-11.125,-41.625,0
73390,0.3125,-15.0625,-44.5625,0
73410,7.8125,-19.9375,-43.25,0
73430,9.125,-22.5,-42.9375,0
73450,4.75,-24.75,-42.0625,0
73470,9.5625,-29.5625,-42.875,0
73490,14.6875,-33.3125,-43.0625,0
73510,17.8125,-33.3125,-42.1875,0
73530,16.3125,-36.625,-41.8125,0
73550,16.9375,-40.8125,-40.875,0
73570,20.6875,-42.375,-39.6875,0
73590,24.1875,-43.9375,-37.875,0
73610,21.25,-44.9375,-36.375,0
73630,21.6875,-48.0625,-33.25,0
73650,26.25,-51.0625,-27.375,0
73670,26.6875,-53,-22.4375,0
73690,23.375,-55.8125,-19.9375,0
73710,24.25,-57.6875,-13.625,0
73730,28.0625,-59.6875,-6.25,0
73750,24.0625,-58.4375,0.0625,0
73770,15.625,-56.125,4.4375,0
73790,12.6875,-55.625,7.875,0
73810,10.3125,-54.3125,13.5,0
73830,1.625,-50.0625,13.875,0
73850,-7.5625,-45.9375,11.125,0
73870,-10.4375,-44.3125,10.125,0
73890,-4.1875,-42.8125,11.125,0
73910,2.9375,-37.9375,16.5625,0
73930,3.0625,-33.0625,23.375,0
73950,-4.0625,-30.125,27.9375,0
73970,-4.6875,-30.0625,30.3125,0
73990,1.5,-30.25,33.1875,0
74010,4.9375,-28.8125,38.125,0
74030,0.9375,-24.375,41.5,0
74050,-6.9375,-22.625,40.4375,0
74070,-3.3125,-23.25,39.0625,0
74090,-1.125,-21.375,40.3125,0
74110,3.375,-16.1875,41,0
74120,-4.5625,-10.625,43.1875,0
74140,-12.75,-8.5625,43.75,0
74160,-13.1875,-6.1875,41.125,0
74180,-4.3125,-1.625,40.25,0
74200,3.25,5.75,40.6875,0
74220,-4.375,12.25,38.875,0
74240,-6.5625,16.75,35.4375,0
74260,-1.0625,20,34.5625,0
74280,3.5,24.3125,34.625,0
74300,0.0625,28.375,34.0625,0
74320,-1.9375,29.5,31.375,0
74340,-1.5,34.4375,29.5625,0
74360,2.8125,39,30.375,0
74380,4.25,39.625,28.4375,0
74400,2.8125,41.1875,27.3125,0
74420,4.5,44,26.9375,0
74440,5.625,45.5625,25.4375,0
74460,3.5625,46.375,24,0
74480,3.6875,47,21.0625,0
74500,6,48.0625,21,0
74520,4.8125,49.375,20.375,0
74540,-1.375,47.4375,16.75,0
74560,-1.3125,45.6875,14.1875,0
74580,2.4375,47.0625,12.25,0
74600,1.4375,47.625,8.5625,0
74620,0.5,48.125,4.125,0
74640,4.0625,47.75,1,0
74660,5.5625,50.0625,-3.1875,0
74680,3.8125,50.125,-8.1875,0
74700,1.8125,49.6875,-12.1875,0
74720,1.25,50.25,-16.0625,0
74740,1.5625,50.875,-18.4375,0
74760,2.1875,51.375,-23.875,0
74780,4.875,51.125,-25.9375,0
74800,5.0625,49.5,-27.375,0
74820,0.0625,48.3125,-29.1875,0
74840,-1.875,48.1875,-33.5625,0
74860,0.8125,43.5625,-38.875,0
74880,1.1875,41.75,-40,0
74900,0.375,40.25,-40.9375,0
74920,-6.1875,37.5625,-43.75,0
74940,-6.375,33.25,-44.0625,0
74960,-4,30.5,-44.8125,0
74980,-4.6875,28.375,-44.875,0
75000,-6.9375,27.75,-42.75,0
75020,-6.75,25.3125,-40.125,0
75040,-11.5,23.5625,-40.8125,0
75060,-13.0625,21,-42.9375,0
75080,-6.75,18.25,-44.0625,0
75100,-5.3125,15.75,-41,0
75120,-11.1875,15.5625,-36.9375,2001
75140,-10.75,11.5,-34.5,0
75160,-7.375,8.5,-32,0
75180,-5.0625,6.6875,-27.0625,0
75200,-6.75,3.125,-21.625,0
75220,-0.8125,-1.9375,-13.0625,0
75240,4.4375,-3.875,-3,0
75260,3.6875,-3.75,4.3125,0
75280,4.8125,-6.875,7.8125,0
75300,4.4375,-10.4375,9.3125,0
75320,3.125,-9.625,10.625,0
75340,1.4375,-8,9.25,0
75360,0.25,-8.4375,8.75,0
75380,1.5,-7.6875,13.3125,0
75400,3.3125,-8.9375,21.3125,0
75420,9.625,-14.5625,31.0625,0
75440,9.875,-20,42.4375,0
75460,14.5,-24.3125,58,0
75480,15.5625,-31.25,77,0
75500,14.1875,-39.375,93.25,0
75520,15.0625,-46.9375,106.5,0
75540,16.875,-51.3125,124.625,0
75560,5.375,-58.6875,135.938,0
75580,-1.4375,-67.1875,141.188,0
75600,1.6875,-66.0625,146.938,0
75620,9.875,-66.5625,145.688,0
75640,-0.75,-70.6875,143.062,0
75660,-5.5625,-60.0625,142.062,0
75680,-20.25,-53.875,133.312,0
75700,-22.4375,-51.5,121.5,0
75720,-34.3125,-49.5625,114.5,0
75740,-36.625,-38.0625,105.438,0
75760,-39.25,-27.9375,96.75,0
75780,-38.9375,-20.625,80.5625,0
75800,-38.125,-14.0625,68.375,0
75820,-41.1875,-7.875,59.5625,0
75840,-38.375,-6.125,51.5,0
75860,-31.0625,-4.8125,45.125,0
75880,-27.875,-1.75,37.5625,0
75900,-26,-3.375,32.875,0
75920,-17.8125,-5.6875,27.75,0
75940,-9.8125,-4.4375,17.5,0
75960,-7.8125,0.25,12.25,0
75980,-6.875,6.1875,9.0625,0
76000,-0.25,4.5,7.375,0
76010,4.4375,2.5625,7.4375,0
76040,6.8125,3.875,6.625,0
76060,6.625,4.5625,3.25,0
76080,8.125,6.5625,2,0
76100,10.375,6.1875,-0.9375,0
76110,3.5625,8.3125,-8.5625,0
76130,-1.5,10.125,-17.4375,0
76150,-1.75,12.375,-23.0625,0
76170,-3.875,17.75,-25.375,0
76190,-2.9375,21.25,-28,0
76210,-2.125,22.8125,-28.8125,0
76230,-1.1875,21.375,-26.75,0
76250,4.1875,21.375,-18.5625,0
76270,5.5,16,-13.25,0
76290,7,10.75,-9.9375,0
76310,7.4375,8.1875,-7.375,0
76330,7.1875,5.75,-4.625,0
76350,6.375,2.875,-2.5625,0
76370,3.375,-2,-2.9375,0
76390,6.75,-4.5625,-1.875,0
76410,8.3125,-4.6875,0.5625,0
76430,7.25,-2.9375,0.9375,0
76450,6.4375,-4.1875,0.625,0
76470,5.6875,-4.1875,0.5,0
76490,7.375,-1.625,-0.125,0
76510,7.625,-3.25,0.25,0
76530,6.0625,-4.8125,1.3125,0
76550,6,-5.375,2.5,0
76570,6.4375,-5,4.625,0
76590,4.8125,-4.5625,4.5625,0
76610,3.6875,-2.1875,4.9375,0
76630,2.375,-0.75,6.1875,0
76650,-0.25,0.5625,6.6875,0
76670,-2.4375,1.75,7.25,0
76690,-2.8125,3.3125,7.6875,0
76710,-1.8125,3.4375,8.4375,0
76730,-2.125,1.75,7.25,0
76750,-1.625,1.1875,5.3125,0
76770,-2.1875,2.5,2.3125,0
76790,-2.6875,3.875,-0.8125,0
76810,-2.25,2.875,-2.5625,0
76830,-0.875,1.8125,-3.4375,0
76850,0.25,2.0625,-2.875,0
76870,1.0625,1.625,-2.6875,0
76890,2,0.3125,-1.5625,0
76910,1.0625,-0.9375,0.5,0
76930,0.5,-1.875,1,0
76950,-1.5,-2.9375,0.5,0
76970,-1.1875,-3.625,1.9375,0
76990,-0.6875,-4.1875,2.375,0
77010,-3.625,-2.1875,1.8125,0
77030,-6.125,0.6875,0.25,0
77050,-6.5625,1.3125,0.75,0
77070,-6.0625,2.0625,1.5,0
77090,-4.125,2.6875,1.1875,0
77110,-5.625,3.75,-0.9375,0
77130,-8.5625,6.375,-1.625,0
77150,-10.5625,8.1875,-2.9375,0
77170,-11.9375,7.125,-5.625,0
77190,-12.875,6.125,-6.875,0
77210,-14.5625,5.1875,-6.5625,0
77230,-17.8125,5.3125,-6.6875,0
77250,-19.375,2,-7,0
77270,-18.375,-0.375,-5.5625,0
77290,-18.4375,-3.375,-3.375,0
77310,-19.6875,-4.75,-4.0625,0
77330,-22.5,-5.0625,-2,0
77350,-20.75,-9.5625,1.25,0
77370,-18.875,-10.625,0.5,0
77390,-18.5,-4.625,0.25,0
77410,-21.125,-1,0.875,0
77430,-17.5625,-4.9375,3.5625,0
77450,-8.875,-6.625,3.5625,0
77470,-11.1875,-2.375,0.5,0
77490,-14.5625,0.9375,-3.6875,0
77510,-14.375,1.5625,-8.125,0
77530,-13.5625,2.5,-7.1875,0
77550,-13.375,3,-10.5,0
77570,-14.75,6.375,-11.6875,0
77590,-17.375,7.5625,-7.8125,0
77610,-12.875,0.8125,-5.0625,0
77630,-9.625,-0.0625,-2.125,0
77650,-13,2.8125,0.25,0
77670,-15.1875,2.6875,2.1875,0
77690,-11.5,-1.75,3.0625,0
77710,-4.875,-6.8125,4.625,0
77730,0.0625,-9.625,4.5625,0
77750,2.6875,-10.8125,4.0625,0
77770,1.75,-7.5,1.8125,0
77790,-0.3125,-1.1875,-1.25,0
77810,-0.9375,1.875,-4.125,0
77830,1,2.6875,-5.125,0
77850,6.1875,1.875,-6.625,0
77870,7.3125,4.1875,-8.875,0
77890,5.5625,7.1875,-11.3125,0
77910,6.5,6.25,-11.625,0
77930,9.625,4,-11.1875,0
77950,10.375,2.625,-10.1875,0
77970,7.9375,1.8125,-10.375,0
77990,5.125,0.875,-9.6875,0
78010,3.875,0.5625,-8.8125,0
78030,2.6875,0.8125,-6.5,0
78050,1.9375,-0.25,-4.5,0
78070,1.1875,-1.5625,-1.625,0
78090,0.875,-3.25,1.4375,0
78110,1.5625,-4.625,3.9375,0
78130,2.5,-4.625,4.375,0
78150,-0.3125,-3.0625,4.6875,0
78170,-1.875,-1.875,4.375,0
78190,-0.3125,-2.375,4.25,0
78210,1.125,-3.125,3.8125,0
78230,1.75,-2.4375,1.5,0
78250,0.8125,0.9375,-0.3125,0
78270,-0.4375,4.625,-2.0625,0
78290,0.375,3.6875,-1.75,0
78310,1.9375,1.5625,-2,0
78330,2.25,1.375,-0.4375,0
78350,1.8125,0.3125,-0.6875,0
78370,1.1875,0.8125,-1.25,0
78390,1.375,-0.3125,-1.9375,0
78410,2.75,-3.75,-2.3125,0
78430,4.625,-7.0625,-1.25,0
78450,4.25,-7.75,-2.1875,0
78470,2.125,-4.3125,-3.5625,0
78490,-0.375,0.6875,-5.5625,0
78510,-1.75,-3.375,-4.8125,0
78530,4.3125,-10.8125,-2.1875,0
78550,6.4375,-11.4375,-2.5625,0
78570,0,-4.3125,-2.875,0
78590,-4.5,-2.875,-2.0625,0
78610,-3.5,-6.9375,-0.3125,0
78630,-2.75,-7.75,2.6875,0
78650,-2.875,-9.0625,4.3125,0
78670,-4.1875,-9.5,4.3125,0
78690,-5.125,-6.5,3.4375,0
78710,-5.5625,-4.5,2.75,0
78730,-6.6875,-2.0625,1.5,0
78750,-7.6875,-0.625,0.3125,0
78770,-5.75,0.375,-1.8125,0
78790,-3.375,2.25,-3.5,0
78810,-2.375,4.625,-2.3125,0
78830,-1.375,5.6875,-1.75,0
78850,0.8125,5.5625,-0.5625,0
78870,2.5,6,0.875,0
78890,1.375,9.375,1.1875,0
78910,1.3125,8.9375,1.0625,0
78930,1.5,7.75,1.875,0
78950,0.5,6.875,2.625,0
78970,0.0625,5.75,2.3125,0
78990,-1.0625,4.375,1.9375,0
79010,-1.1875,4.125,2,0
79030,-0.8125,3.875,2.0625,0
79050,-1.9375,3.4375,0.5625,0
79070,-2.875,2.6875,-1.3125,0
79090,-2.1875,1.1875,-1.875,0
79110,-1.6875,1.25,-0.8125,0
79130,-1.75,1.625,-0.4375,0
79150,-3.125,2.75,-1.5,0
79170,-3.3125,3.1875,-1.8125,0
79190,-1.875,1.625,-1.1875,0
79210,-0.5,0.5625,-0.25,0
79230,-0.8125,0.8125,0.125,0
79250,0.75,0.1875,-0.0625,0
79270,2.875,-0.375,0.5,0
79290,3.375,-0.0625,1.25,0
79310,2.875,0.5625,1.125,0
79330,1,1.75,0.5,0
79350,1.75,1.6875,0.375,0
79370,1.6875,0.5625,0.6875,0
79390,2.3125,-0.625,1.6875,0
79410,1.9375,-1.25,1.6875,0
79430,-0.375,0.1875,1.4375,0
79450,-0.75,0.1875,1.9375,0
79470,-0.25,-1.25,3.3125,0
79490,0.75,-2.5,3.4375,0
79510,-0.0625,-1.625,3.5,0
79530,-1.4375,-0.3125,2.5625,0
79540,-1.375,1.75,2.1875,0
79560,-1.125,2.625,2,0
79580,-0.625,2.875,0.375,0
79600,0.3125,1.625,0.5,0
79620,0.6875,2.875,1.25,0
79640,0.3125,5.3125,0.125,0
79660,-0.9375,3.6875,0.625,0
79680,0.125,0.1875,-1.25,0
79700,0.3125,0,-0.9375,0
79720,-2.0625,1.5625,-1.4375,0
79740,-1.5625,0.625,-0.375,0
79760,-0.6875,-0.125,0.9375,0
79780,0.5,-0.25,0.875,0
79800,0.1875,0.375,0.875,0
79820,0.0625,-0.3125,0.3125,0
79840,-0.3125,1.3125,0.0625,0
79860,0.0625,0.625,0.375,0
79880,0.9375,0,0.1875,0
79900,0.4375,1.375,0.375,0
79920,0.75,2.0625,0.9375,0
79940,1.6875,2.125,0.75,0
79960,1.375,2.125,1.1875,0
79980,0.6875,3.125,1.375,0
80000,1.125,3.25,0.6875,0
80020,0.625,3.5625,1.0625,0
80040,2.375,4.0625,-0.375,0
80060,3.6875,7.5,-1,0
80080,3.1875,8.0625,-2.9375,0
80100,6.5625,7.25,-4.1875,0
80120,10.375,5.3125,-3.8125,0
80140,12.9375,7.5,-2.875,0
80160,12.625,9.125,-3.6875,0
80180,10.6875,10.0625,-4.625,0
80200,11.9375,10,-5.75,0
80220,9.5625,11.375,-4.3125,0
80240,8.875,10.5,-4.6875,0
80260,6.5,8.75,-6.4375,0
80280,5.0625,7.3125,-8.4375,0
80300,4.8125,5.625,-9.125,0
80320,1.3125,4.6875,-10.0625,0
80340,1.625,1.875,-12.6875,0
80360,1.375,0.75,-14.0625,0
80380,1.875,-1.5,-15.0625,0
80400,2.6875,-2.375,-14.5,0
80420,5.4375,-2.0625,-13.625,0
80440,1.875,-1.75,-13.5,0
80460,4.5,-6.375,-13.75,0
80480,7.5625,-12.4375,-12.6875,0
80500,11.6875,-13.5,-12.4375,0
80520,8.25,-10.9375,-13.1875,0
80540,5.875,-11.1875,-15.25,0
80560,8.6875,-16.5625,-16.125,0
80580,14.5625,-21.1875,-15.8125,0
80600,13.0625,-22.125,-15,0
80620,12.75,-21.125,-15.125,0
80640,12.4375,-21.1875,-15.0625,0
80660,16.875,-23.5625,-12.8125,0
80680,18.75,-23.8125,-9.8125,0
80700,18.3125,-22.875,-10.5,0
80720,17,-22.125,-11.8125,0
80740,16.625,-22.5,-14.5,0
80760,17.75,-25.3125,-15.25,0
80780,16.625,-26.8125,-18,0
80800,15.0625,-28.8125,-21.125,0
80820,12.8125,-29.4375,-23.25,0
80840,11.25,-31.1875,-25.3125,0
80860,9.8125,-32.4375,-25.4375,0
80880,8.5625,-34.375,-26.5,0
80900,7.5,-34.8125,-26.875,0
80920,5.1875,-36.5,-27.9375,0
80940,4.5625,-39.1875,-27.9375,0
80960,4.625,-41.625,-27.4375,0
80980,5.75,-43.1875,-25.8125,0
81000,4.875,-43.25,-25.5,0
81020,0.75,-41.25,-25.6875,0
81040,-3.1875,-39.25,-26.8125,0
81060,-3.375,-38.875,-27.6875,0
81080,-2.25,-41.125,-28.8125,0
81100,-2.4375,-43.1875,-30.25,0
81120,-3.625,-42.8125,-30.4375,0
81140,-4.25,-40.9375,-30.875,0
81160,-4.9375,-38,-30.0625,0
81180,-6,-38.375,-29.5625,0
81200,-5.5625,-39.25,-27.875,0
81220,-4.6875,-37.1875,-25.8125,0
81240,-4.5,-37.75,-23.8125,0
81260,-3.75,-38.75,-21.4375,0
81280,-4,-35.1875,-19.125,0
81300,-3.25,-33.4375,-17.6875,0
81320,-0.8125,-31.25,-11.75,0
81340,-0.75,-29.5,-5.25,0
81360,-3.0625,-25.125,-1.875,0
81380,-4.1875,-19.25,1,0
81400,-4.5,-13.875,5.5,0
81420,-4.5625,-8.25,5.8125,0
81440,-5.125,-4.6875,5.9375,0
81460,-4.5625,-0.6875,8.125,0
81480,-4.1875,3.25,7.5,0
81500,-6.6875,6.5625,7.5625,0
81520,-6.1875,9,6.1875,0
81540,-5.3125,9.4375,7.5,0
81550,-2.125,10.625,9.0625,0
81570,-1.0625,12.125,10.8125,0
81590,0.1875,14.5,12.8125,0
81610,2.5625,16.8125,12.75,0
81630,8.0625,18.25,15.25,0
81650,11.625,14.875,21.75,0
81670,13.625,18.6875,21.5625,0
81690,13.9375,24,15.5,0
81710,10.25,30.5625,17.0625,0
81730,7.4375,35.6875,17.5625,0
81750,3,40.3125,16.75,0
81770,9.1875,46.875,16.375,0
81790,6.6875,54,15.1875,0
81810,1.625,56.8125,19.9375,0
81830,9,55.4375,22.3125,0
81850,8.875,64.8125,24.125,0
81870,5.6875,75.3125,29.3125,0
81890,2.125,73.8125,31.5,0
81910,6.875,72.3125,32.0625,0
81930,5.4375,79.0625,38.5625,0
81950,0.9375,80.875,43.625,0
81970,4.1875,71.4375,43.5625,0
81990,10.75,65.5,45.6875,0
82010,12.9375,65.3125,48.3125,0
82030,11.0625,63.0625,50.25,0
82050,8.9375,54.8125,48.5625,0
82070,7.25,44.4375,42.5625,0
82090,9.25,35.25,37.0625,0
82110,7.625,30.375,36.25,0
82130,-2.3125,22.9375,30.5625,0
82150,-5.8125,13,19.9375,0
82170,-9.8125,7.0625,11.9375,0
82190,-12.3125,4.25,7,0
82210,-10.6875,1.6875,4.625,0
82230,-9.875,-1.9375,4.25,0
82250,-6.9375,-3.6875,3.1875,0
82270,-0.5,-4.625,1.9375,0
82290,0.3125,-1.875,4,0
82310,-1,-1.8125,6,0
82330,0.375,-2.3125,5.9375,0
82350,2,-3.6875,5,0
82370,3.9375,-1.375,5.3125,0
82390,2.1875,1.25,6.6875,0
82410,0.5625,-0.5,7,0
82430,1.6875,-2.625,5.6875,0
82450,1.1875,-3.25,2.75,0
82470,3.25,-0.8125,1.125,0
82490,1.3125,1.4375,2.3125,0
82510,1,-0.5625,2.625,0
82530,2.9375,-1.625,1.8125,0
82550,6.5625,-0.1875,1.75,0
82570,4.375,3,2.8125,0
82590,3.9375,4.4375,3.5,0
82610,3.1875,2.8125,3.6875,0
82630,4.5,-0.3125,-0.0625,0
82650,-0.5,1.75,-2.8125,2000
82670,-2.0625,5.75,-3,0
82690,-3.5625,6.0625,-0.25,0
82710,-1.75,1.125,-0.9375,0
82730,-2.625,-2,-4.3125,0
82750,-4.75,-1.375,-5.75,0
82770,-4.3125,-0.8125,-3.375,0
82790,-2.5,-1.25,0.125,0
82810,-0.875,-3.5,1.25,0
82830,2.3125,-2.6875,0.9375,0
82850,1,-2.0625,-0.375,0
82870,-1.3125,-0.5625,0.375,0
82890,0.3125,-0.6875,2,0
82910,1.5,-0.9375,1.8125,0
82930,-0.125,0,-0.5,0
82950,-2.4375,1.375,-1.25,0
82970,-0.5625,2.625,-1.3125,0
82990,-0.1875,3.625,-1.25,0
83010,-1.625,5.1875,-1.25,0
83030,-2.6875,5.1875,-2.5625,0
83050,-1.875,5,-4.75,0
83070,-0.4375,7.5,-5.1875,0
83090,-3.25,10,-5.25,0
83110,-1.9375,10.3125,-7.0625,0
83130,-1.6875,10.625,-7.0625,0
83150,-0.5625,9.625,-8.25,0
83170,0.875,9.5625,-9.5625,0
83190,2.125,13.3125,-7.8125,0
83210,1.9375,13.375,-6.375,0
83230,3.625,9.6875,-6.5625,0
83250,4.75,7.9375,-9,0
83270,4.0625,10.5,-10.375,0
83290,3.9375,11.0625,-9.25,0
83310,5.3125,9.25,-10.1875,0
83330,6.625,8.8125,-13,0
83350,4.25,8.375,-14.5625,0
83370,4.375,7.9375,-16,0
83390,7.8125,6.8125,-17.75,0
83410,7.6875,4.3125,-18.3125,0
83430,7.4375,1.75,-18.75,0
83450,5.8125,-0.75,-19.5625,0
83470,5.125,-2.8125,-21,0
83490,5.625,-4.5,-21.1875,0
83510,4.9375,-6.4375,-20.9375,0
83530,3.5,-7.6875,-20.5,0
83550,2.3125,-10,-21.8125,0
83570,3.625,-13.0625,-22.0625,0
